timestamp,emg1,emg2,emg3,emg4,emg5,emg6,emg7,emg8
1523147097670448,-1,-1,-8,-23,-20,3,3,10
1523147097670448,4,1,1,24,34,-1,0,0
1523147097671451,-15,-1,3,-42,-13,-1,0,-7
1523147097671451,4,-12,-4,41,10,-4,-9,18
1523147097701030,-2,3,7,17,12,4,3,-8
1523147097701030,-1,-2,-10,-91,-42,2,3,-6
1523147097701531,-2,-4,9,88,44,-4,-2,51
1523147097701531,-11,0,5,-38,0,-4,-5,-8
1523147097709552,21,3,-4,18,11,-5,-1,12
1523147097709552,10,3,1,-46,-17,1,0,-3
1523147097710556,-6,3,3,-1,12,0,-1,-5
1523147097710556,3,7,4,-13,-11,-1,-3,-25
1523147097730608,-14,-5,5,50,19,0,-6,-19
1523147097730608,10,-5,-11,-12,-17,1,6,64
1523147097731110,19,6,-7,-19,-15,-2,-3,-29
1523147097731110,-3,-7,1,73,30,-1,-2,-10
1523147097753669,-10,2,-5,-34,-33,1,3,-26
1523147097753669,0,-1,-1,-21,19,0,-3,42
1523147097754672,12,3,11,29,0,0,-1,-2
1523147097754672,27,7,-2,-8,-8,1,4,-9
1523147097767708,-40,-7,-4,-17,4,1,-1,3
1523147097767708,31,0,-1,10,-13,-3,-1,-18
1523147097768709,-1,42,-18,-21,-11,-2,4,41
1523147097768709,-46,-54,-36,-3,-1,-4,-7,-72
1523147097790267,1,45,8,12,7,-4,-5,38
1523147097790267,-16,2,2,-3,-11,-3,-3,-26
1523147097791269,-63,-41,-4,-5,-3,-1,-11,-23
1523147097791269,28,37,8,-16,-5,4,23,40
1523147097812833,-8,-72,-11,18,15,-4,-9,-70
1523147097812833,-30,-8,2,9,-3,6,3,-1
1523147097813837,-28,-24,-7,-19,-10,-5,-7,44
1523147097813837,50,41,30,2,6,-1,-9,-23
1523147097827895,1,-51,-16,13,14,5,8,27
1523147097827895,66,20,2,-9,-10,2,13,77
1523147097828891,-31,-17,8,-6,-6,2,7,-23
1523147097828891,-30,-25,-18,5,6,1,-8,-5
1523147097850448,38,45,3,10,9,3,6,10
1523147097850448,-26,-23,2,-1,-4,2,0,-37
1523147097851450,33,19,-4,2,3,1,3,7
1523147097851450,-6,-1,-10,-3,-2,-1,1,28
1523147097873058,-8,7,2,-8,-5,0,-2,-32
1523147097873058,0,4,-5,-1,1,-1,-1,-11
1523147097874069,13,0,-2,-42,-17,-2,-1,-2
1523147097874069,-17,-3,6,30,30,-10,-14,-12
1523147097888099,2,-12,-3,16,-14,2,-2,-6
1523147097888099,-12,1,3,9,18,0,-3,-16
1523147097888601,16,8,-3,-50,-33,3,9,25
1523147097888601,-9,-15,-8,10,-5,-1,-4,-13
1523147097910658,-8,10,0,-43,25,-4,-5,4
1523147097910658,-13,-1,7,96,51,-7,-12,-24
1523147097911163,3,-4,-2,6,-17,-3,-2,-6
1523147097911163,5,3,-1,-82,-39,-2,0,6
1523147097932716,-10,-4,3,14,25,10,0,-30
1523147097932716,18,6,-5,-89,-42,3,17,37
1523147097933721,-8,-6,-7,-65,-10,-9,-8,-34
1523147097933721,-2,-5,5,114,44,-1,-4,50
1523147097947759,10,-5,-11,-53,-36,-4,-2,3
1523147097947759,-3,6,6,35,25,-2,-8,-40
1523147097948759,15,5,4,40,-23,-1,8,52
1523147097948759,6,6,-9,-70,-53,4,12,10
1523147097970316,-30,5,3,-4,26,-5,-5,-4
1523147097970316,-10,-8,-1,43,3,-9,-13,-2
1523147097971319,18,4,-6,-72,-30,-1,0,-15
1523147097971319,-8,-1,10,113,73,3,-4,-24
1523147097992876,13,-4,0,-8,-12,-4,-2,17
1523147097992876,-8,0,-6,-85,-52,-4,3,0
1523147097993882,-10,-4,-3,78,66,1,-9,-36
1523147097993882,5,-4,-2,-56,-46,0,1,9
1523147098007921,4,3,4,-23,-20,-2,4,9
1523147098007921,4,6,-3,22,5,0,-2,-4
1523147098008925,-11,-8,5,50,52,2,-8,-43
1523147098008925,17,0,-3,-47,-19,1,4,-3
1523147098030495,0,-6,-21,47,16,-3,-7,-15
1523147098030495,11,6,-1,-77,-51,2,11,58
1523147098031481,-2,-5,-7,-2,-7,-1,1,2
1523147098031481,-11,-9,-2,19,35,-2,-7,-27
1523147098053037,6,2,8,-1,-14,-2,1,17
1523147098053037,-24,-5,-3,-12,2,0,-2,-21
1523147098053539,2,4,4,49,-11,-1,-3,-7
1523147098053539,-4,1,2,-2,22,-1,-2,11
1523147098068077,5,2,2,-18,-19,-2,0,-3
1523147098068077,-5,-9,-5,60,28,0,-5,-8
1523147098068578,0,0,3,-34,-13,-1,1,11
1523147098068578,-9,-1,-5,-28,-43,-4,0,8
1523147098090636,-2,1,-3,23,-4,0,1,7
1523147098090636,-7,-7,5,51,48,-1,-5,-22
1523147098091139,1,2,-3,-25,-6,1,1,10
1523147098091139,7,0,0,-8,-3,-2,-1,15
1523147098112696,5,5,-4,-81,-48,-2,4,8
1523147098112696,0,-2,4,31,41,1,-7,-10
1523147098120718,-23,-18,-5,38,22,-1,5,30
1523147098120718,26,10,4,-36,-3,2,2,6
1523147098127737,-14,0,0,0,3,3,2,-1
1523147098127737,-2,-1,0,-71,-38,-6,-3,2
1523147098128739,-1,-3,4,53,35,0,-10,-29
1523147098128739,-2,-2,-2,1,-6,0,3,0
1523147098150296,4,2,-2,-17,-3,-1,3,29
1523147098150296,6,0,-4,-12,-19,-2,-2,-22
1523147098151298,-2,-5,-4,-2,8,-2,-1,-1
1523147098151298,-15,-5,-1,25,9,-4,-3,-9
1523147098172858,4,1,4,40,14,-3,-6,-14
1523147098172858,-3,0,-5,-12,-5,4,4,0
1523147098173860,8,4,0,-49,-51,-5,4,27
1523147098173860,-22,-8,5,89,68,1,-9,-57
1523147098187897,7,-4,-3,8,6,-5,7,62
1523147098187897,9,4,-1,-37,-33,-3,0,21
1523147098188900,-4,-3,0,-4,12,0,-3,-16
1523147098188900,-5,-8,-32,-95,-57,-1,1,-17
1523147098210458,-13,-4,6,94,42,-6,-11,-19
1523147098210458,-5,-6,-1,42,40,2,-6,-31
1523147098211458,12,6,2,-19,-11,0,8,45
1523147098211458,-11,-4,4,-23,-10,-2,-2,7
1523147098233016,0,0,0,-1,3,1,-2,-23
1523147098233016,-10,-6,-1,-34,-30,-5,-3,-23
1523147098234018,5,0,1,4,6,-1,-3,12
1523147098234018,3,-1,-3,25,10,1,2,3
1523147098248056,-6,-7,0,-21,-13,0,-3,-25
1523147098248056,23,11,-16,10,0,1,-2,-48
1523147098248557,-6,-20,9,-9,-3,-1,-4,-29
1523147098248557,25,19,19,-19,-11,3,3,-9
1523147098270616,-49,-67,-11,-12,-5,-3,2,36
1523147098270616,17,10,9,6,1,-3,-6,-4
1523147098271118,-4,1,-12,-2,0,2,-4,-9
1523147098271118,28,71,-1,-12,-11,-5,-3,29
1523147098293179,26,-68,0,14,9,-2,-4,-39
1523147098293179,-19,-4,8,-4,-9,0,9,47
1523147098293679,-40,-15,-8,-12,-3,-4,-11,-46
1523147098293679,-9,49,18,7,0,-1,-9,-67
1523147098307213,27,23,-18,6,3,0,11,106
1523147098307213,-48,-12,-4,-12,-9,-3,-8,-19
1523147098315236,52,39,-10,10,11,7,-2,-49
1523147098315236,-11,-17,-6,3,2,0,2,31
1523147098330276,17,36,15,-8,-5,0,-1,-18
1523147098330276,15,-13,17,-12,-7,0,4,14
1523147098331278,-9,19,-7,9,5,3,9,23
1523147098331278,-7,-29,-7,0,-7,-4,-3,32
1523147098352834,3,16,2,-3,4,3,-4,-34
1523147098352834,0,7,3,1,-1,1,-6,-26
1523147098353838,-1,-11,4,-2,-2,-1,5,30
1523147098353838,0,-23,7,-10,-8,-1,0,-3
1523147098367374,-3,12,2,0,0,-2,-4,-19
1523147098367374,-3,4,-7,-37,-21,-3,-1,-10
1523147098375395,-5,-10,4,48,30,-8,-11,-22
1523147098375395,-10,-26,-12,-28,-22,3,5,-5
1523147098390436,-7,22,-1,9,12,3,-1,-3
1523147098390436,18,3,-1,8,0,4,6,21
1523147098391438,8,-2,0,37,2,-2,-3,5
1523147098391438,-11,-13,-4,11,-6,-5,0,23
1523147098412995,-4,5,5,3,26,0,-2,-14
1523147098412995,2,-9,-11,-11,-3,-9,-5,7
1523147098413496,-5,-1,-5,-38,-53,5,6,-30
1523147098413496,-3,-14,4,-39,63,0,6,14
1523147098427533,1,-1,-2,71,-15,-1,-11,-66
1523147098427533,6,7,-4,-97,-46,0,7,40
1523147098435554,11,-16,5,56,51,-4,-8,-12
1523147098435554,-38,-14,-13,6,-19,-1,-2,-17
1523147098450594,9,10,-6,-91,-48,-1,5,-1
1523147098450594,-6,-5,4,91,51,1,-2,3
1523147098451096,-11,-6,-4,-46,-39,-5,5,63
1523147098451096,11,-4,-1,12,0,7,0,-17
1523147098473156,-1,-4,-3,-30,-8,-8,-1,5
1523147098473156,-7,3,-8,57,5,-1,-3,-11
1523147098473656,2,3,0,-60,-26,-2,-1,0
1523147098473656,-2,-5,0,23,-3,-3,-3,-10
1523147098487192,-18,6,9,67,37,-2,-7,-13
1523147098487192,7,-8,-8,-70,-34,2,8,39
1523147098495714,2,1,3,-31,28,5,2,-14
1523147098495714,2,0,-2,31,-27,-6,-5,-3
1523147098510756,1,2,-9,-38,-5,2,1,-32
1523147098510756,-5,-6,-6,-11,-11,-3,-3,-1
1523147098511262,4,-2,6,72,65,-2,-5,8
1523147098511262,3,3,1,-27,-33,-1,1,-10
1523147098541336,7,3,-1,-18,-7,0,-3,-17
1523147098541336,-3,1,12,33,12,-6,0,10
1523147098541839,-3,6,2,-5,-6,1,-3,6
1523147098541839,6,-3,-3,-27,-15,-2,-2,-4
1523147098547352,5,-1,2,-2,17,1,1,18
1523147098547352,-16,-1,-2,24,-23,-1,-5,-30
1523147098555373,1,1,-8,-46,-32,0,6,16
1523147098555373,1,-3,1,63,48,-4,-6,-3
1523147098570414,-8,-7,-3,-9,-15,0,2,11
1523147098570414,20,8,-5,-37,-4,3,2,3
1523147098571417,-8,-5,-2,10,-6,-8,-4,-18
1523147098571417,-16,-13,-7,14,12,-4,-5,-2
1523147098592973,0,4,2,-22,-13,-2,-2,5
1523147098592973,4,-4,-3,22,9,-2,0,34
1523147098593977,4,1,-3,0,24,2,1,9
1523147098593977,4,6,2,-31,-44,0,-3,-29
1523147098607511,3,-1,3,49,20,4,14,57
1523147098607511,-20,-5,-3,-8,6,-1,-1,-23
1523147098615534,-3,0,-3,-30,-33,-8,-8,-12
1523147098615534,0,0,0,3,12,2,-2,-9
1523147098630579,-3,-3,0,11,11,-2,6,65
1523147098630579,4,-2,0,6,5,0,0,-13
1523147098631076,-1,1,-2,-23,-24,-1,-1,-1
1523147098631076,3,-2,-2,-20,8,-2,-2,-4
1523147098653133,2,-3,-1,-3,-10,-11,-9,-28
1523147098653133,2,-1,-4,2,-8,9,2,-1
1523147098653635,-14,0,7,22,54,-3,-4,-10
1523147098653635,4,1,-3,25,-34,-8,-3,8
1523147098676197,-2,-2,-4,-16,-11,6,-8,-20
1523147098676197,1,1,0,6,6,1,5,7
1523147098677204,3,1,-4,-64,-36,2,2,-10
1523147098677204,-3,-1,0,32,21,-3,0,7
1523147098690233,-2,1,3,5,8,-6,-5,-17
1523147098690233,-11,-5,-2,38,12,-4,-10,-26
1523147098691236,12,-2,-4,-18,-23,2,11,45
1523147098691236,10,4,-4,-31,5,2,0,-2
1523147098712794,-5,0,-4,-21,-16,-3,-6,-11
1523147098712794,-6,-1,3,17,27,-1,-8,-51
1523147098713797,-9,-4,0,25,6,0,1,-7
1523147098713797,2,0,-2,-25,-17,-1,2,8
1523147098736355,18,7,-3,3,4,1,0,-14
1523147098736355,-2,-2,-1,-31,-16,-2,-1,0
1523147098736858,0,6,0,-63,-30,-5,-5,-20
1523147098736858,-4,-1,4,74,28,3,-2,4
1523147098750392,9,7,3,1,13,-1,-3,-4
1523147098750392,-12,-18,-31,9,8,4,-7,-64
1523147098751396,37,11,2,0,-15,3,11,62
1523147098751396,-46,-61,-8,-43,-10,-2,-3,12
1523147098772953,-17,23,7,5,0,2,7,22
1523147098772953,30,-7,4,-13,-6,-6,3,71
1523147098773955,-49,-12,-15,40,13,2,-9,-70
1523147098773955,27,-18,-1,-16,-2,4,1,-3
1523147098796018,-28,0,-5,7,2,-1,-1,-21
1523147098796018,79,37,13,0,2,-1,11,57
1523147098797022,-69,-90,2,5,-2,0,-6,-24
1523147098797022,58,11,22,4,10,0,15,50
1523147098810556,-16,34,-1,-10,-10,1,0,-38
1523147098810556,-32,-4,17,-9,-4,-6,-7,46
1523147098811054,1,42,-14,18,2,-1,2,24
1523147098811054,-18,-16,-11,-15,-2,-2,-7,-45
1523147098833113,37,-34,12,-5,-5,-5,-2,12
1523147098833113,-18,48,13,-7,-4,-3,1,3
1523147098833615,-25,-56,-18,19,8,0,-6,-58
1523147098833615,6,13,-16,-4,0,3,1,38
1523147098856175,-7,-3,-12,-7,-7,-1,2,18
1523147098856175,-12,-21,-12,4,4,-2,-6,-49
1523147098857176,31,38,23,4,-1,-1,2,10
1523147098857176,-16,16,-1,-7,-2,-2,-3,-9
1523147098870212,3,-18,1,-2,-3,1,-1,-10
1523147098870212,-10,-7,-10,-36,-25,1,-1,-11
1523147098871214,10,15,10,28,27,-3,-4,-4
1523147098871214,-3,10,-1,36,17,-2,-2,-13
1523147098892774,-10,-3,-2,-2,-14,-1,-1,0
1523147098892774,-3,-18,0,21,8,-3,-5,-5
1523147098893775,26,23,-9,-120,-74,7,11,16
1523147098893775,-21,3,12,112,102,-9,-15,-26
1523147098916334,5,2,-10,-69,-42,3,4,8
1523147098916334,2,3,-2,-91,-66,3,3,-22
1523147098916836,29,-4,8,124,106,-10,-7,35
1523147098916836,-20,5,1,-61,-42,-2,0,27
1523147098930375,-4,-5,-5,-36,-2,0,-5,-6
1523147098930375,7,-5,-6,-22,-24,-3,0,-10
1523147098931374,-35,5,6,53,12,-3,-8,-36
1523147098931374,14,7,-6,-68,-56,3,9,14
1523147098952931,-25,-7,4,74,85,-3,-13,-67
1523147098952931,-4,1,-1,-6,-27,-3,6,46
1523147098953933,26,7,0,18,-1,-2,-3,31
1523147098953933,9,4,-5,-83,-46,1,6,10
1523147098975994,-21,-15,-3,60,30,-6,-6,-34
1523147098975994,12,-12,-5,-16,32,8,-2,-19
1523147098976999,4,26,5,-28,-12,-2,0,-1
1523147098976999,13,13,2,-80,-27,4,3,-4
1523147098990531,12,-1,-3,30,-24,-10,-6,27
1523147098990531,-16,-5,3,44,35,0,-5,-31
1523147098991033,5,6,-6,8,1,4,5,18
1523147098991033,8,3,-9,-56,-37,2,0,-12
1523147099013091,8,4,0,-2,-3,0,2,1
1523147099013091,-11,-14,0,29,13,-6,-6,12
1523147099013603,-16,-8,-20,-101,-64,1,1,-26
1523147099013603,-10,3,10,117,72,-5,-10,-18
1523147099036156,-18,-7,6,8,11,2,-3,-44
1523147099036156,11,14,-4,-23,-11,3,2,23
1523147099037155,14,-7,-3,-43,-31,0,3,8
1523147099037155,-7,-3,-3,8,3,4,4,1
1523147099049690,14,-5,2,-12,9,-4,-1,23
1523147099049690,-16,-2,-9,-12,-31,-3,-3,-29
1523147099057713,-2,-1,1,5,-4,0,3,14
1523147099057713,-10,-10,9,70,51,-5,-13,-27
1523147099072750,9,7,1,-68,-46,6,5,10
1523147099072750,-13,-7,0,10,39,2,-1,-15
1523147099073753,-10,-6,4,54,1,-4,-5,-15
1523147099073753,-1,6,-5,-7,-9,0,1,-1
1523147099096814,10,0,-12,-67,-46,0,5,34
1523147099096814,-10,-6,6,59,47,-5,-13,-42
1523147099097320,6,-4,0,1,-9,-1,2,-5
1523147099097320,-28,-13,-7,-28,-18,-4,3,44
1523147099110353,9,2,-2,-18,-15,-1,2,18
1523147099110353,-8,-2,6,7,23,1,-4,-18
1523147099111356,-7,0,4,7,4,-2,-2,0
1523147099111356,11,5,-2,-19,-14,2,5,13
1523147099132910,1,-3,-7,-7,-12,-2,4,10
1523147099132910,3,5,-1,-16,-18,-14,-1,22
1523147099133912,5,-3,2,18,19,-4,-8,-43
1523147099133912,-2,0,1,1,-17,27,11,17
1523147099155971,10,4,14,-8,-3,-3,-5,-19
1523147099155971,6,1,-2,-20,-29,-28,-4,4
1523147099156974,-13,-1,0,26,14,26,-3,-78
1523147099156974,67,0,-3,-11,8,13,24,71
1523147099170511,-47,11,5,-2,3,7,0,-8
1523147099170511,5,-1,-1,10,23,1,2,11
1523147099171011,-1,-1,1,-43,-30,-18,-5,11
1523147099171011,-2,11,-5,7,-6,-15,-7,-1
1523147099193073,14,-36,-8,32,19,4,-5,-43
1523147099193073,1,21,20,-2,-5,-1,0,-12
1523147099194076,-16,-3,-12,-15,-3,2,-4,-76
1523147099194076,-5,9,4,-25,-9,2,-4,-79
1523147099216133,-5,4,3,12,13,-12,-7,-32
1523147099216133,-25,-18,-14,-5,-9,11,-3,-110
1523147099217134,11,-5,4,10,4,-5,12,74
1523147099217134,-18,-6,-3,3,6,-9,-13,-56
1523147099229669,-4,5,0,12,6,-4,-12,-77
1523147099229669,52,6,1,3,8,19,17,55
1523147099238190,-6,12,10,-34,-10,1,1,21
1523147099238190,-7,-10,-10,23,6,-13,-13,30
1523147099252730,47,3,-4,2,4,10,31,127
1523147099252730,-5,2,-2,-12,-5,6,-5,-56
1523147099253733,4,-4,-8,3,3,-6,-4,2
1523147099253733,-12,6,1,3,-3,-4,-6,-55
1523147099276294,-52,0,-10,0,-4,-7,-23,-64
1523147099276294,27,0,-16,4,1,2,13,104
1523147099276798,36,-2,-21,18,15,3,3,-59
1523147099276798,27,-10,-3,-10,-4,-3,5,6
1523147099289827,-72,-50,-13,0,-3,-9,-18,-33
1523147099289827,69,2,6,13,6,5,15,-6
1523147099297850,-80,-31,15,-10,-2,-3,-10,-75
1523147099297850,-12,22,-13,8,3,-2,-14,-57
1523147099312890,20,-52,2,4,2,0,6,14
1523147099312890,-16,-4,0,-6,-4,-1,13,69
1523147099313892,44,-3,-2,-8,-2,-2,-2,-35
1523147099313892,-8,1,9,0,1,4,5,-46
1523147099335951,-17,10,4,0,-2,1,0,6
1523147099335951,-10,5,7,5,2,3,-2,-16
1523147099337455,5,11,1,-3,1,0,3,46
1523147099337455,-23,-13,-4,0,-7,-5,-4,7
1523147099349992,16,30,4,-2,-2,2,0,4
1523147099349992,-6,-7,-5,-4,3,1,-10,-31
1523147099358010,-8,1,-6,7,9,-3,0,14
1523147099358010,-9,-6,10,-14,-2,0,-5,-18
1523147099373551,42,12,7,11,-10,2,11,5
1523147099373551,-32,1,2,11,17,-6,-14,-32
1523147099374052,5,4,3,-105,-61,8,19,68
1523147099374052,2,-3,12,104,84,-6,-9,-35
1523147099396112,15,10,-7,-98,-54,-5,2,-5
1523147099396112,-23,-14,-6,39,7,-13,-20,-20
1523147099397113,-6,-2,-3,55,14,4,-10,-21
1523147099397113,9,3,-4,-41,-47,-3,-1,-16
1523147099409646,22,7,-3,-15,30,7,9,37
1523147099409646,-23,-4,4,1,5,-7,-12,-51
1523147099418169,2,-4,2,-34,-12,-8,-5,19
1523147099418169,14,2,-4,-5,-6,3,4,-20
1523147099433211,-7,-2,-9,26,-19,-10,-6,-23
1523147099433211,-5,-5,-2,-21,0,0,-4,-64
1523147099433711,19,6,1,17,1,10,15,35
1523147099433711,-3,1,9,66,69,-1,-4,4
1523147099456274,1,4,-6,-51,-35,-3,0,-15
1523147099456274,-8,-4,-2,-39,12,13,-1,-46
1523147099456772,6,11,0,109,11,-19,-8,63
1523147099456772,-3,2,-3,-94,-59,5,7,11
1523147099469810,1,11,-6,-39,-50,4,10,25
1523147099469810,-20,-11,24,72,80,-5,-14,17
1523147099477830,-1,-10,-16,-113,-47,-5,-1,-9
1523147099477830,-8,13,-2,-66,-30,0,2,40
1523147099492893,7,-2,-1,37,27,-1,-6,-25
1523147099492893,-6,4,-9,-34,-41,-1,1,-53
1523147099493895,14,7,6,11,15,6,13,45
1523147099493895,-2,-4,-8,20,4,-4,-3,16
1523147099516456,1,-4,4,19,11,1,-4,-18
1523147099516456,5,0,-11,-24,-27,-1,3,5
1523147099516957,-11,-7,0,41,-4,-7,-12,-52
1523147099516957,4,-1,7,-14,16,8,3,-9
1523147099529992,4,6,0,-47,0,-1,2,39
1523147099529992,-4,-3,-2,101,12,-9,-3,33
1523147099538012,-6,2,-7,-91,-50,-3,-3,-28
1523147099538012,8,-10,-4,30,23,15,8,41
1523147099553054,-7,-1,1,39,22,-2,-6,-9
1523147099553054,11,1,-6,-89,-60,1,9,39
1523147099554056,-6,-2,0,17,66,-6,-10,-22
1523147099554056,-8,-4,-5,2,-20,-3,-6,-39
1523147099576113,-4,-5,7,39,6,-4,-2,39
1523147099576113,13,-2,-5,-5,-17,-2,3,30
1523147099577116,-10,1,2,-5,5,-1,-4,-28
1523147099577116,9,-3,-6,-26,-16,-5,5,49
1523147099598672,2,3,4,41,32,1,-2,0
1523147099598672,1,1,-2,-18,-10,4,5,2
1523147099599675,-6,-4,-2,17,11,-6,-13,-27
1523147099599675,2,-2,9,-18,-7,-9,-5,-27
1523147099612713,11,5,-4,-29,-19,11,8,13
1523147099612713,-14,-1,7,11,-7,-10,-5,-2
1523147099613713,3,1,1,-10,13,-48,-17,-10
1523147099613713,-17,-14,-4,3,-8,67,14,-53
1523147099636276,-59,-27,-19,-30,-23,-16,-8,-27
1523147099636276,5,2,11,34,49,1,-3,6
1523147099636776,5,-1,1,-1,-3,-10,-1,12
1523147099636776,-21,-5,-11,-15,-8,-4,-5,-39
1523147099658838,12,2,1,-9,-9,-1,0,-7
1523147099658838,5,0,-5,-35,-20,15,6,7
1523147099659336,-15,-3,-2,32,20,-17,-9,-8
1523147099659336,12,0,-6,25,-16,-25,-10,-7
1523147099672872,7,2,-25,-11,17,19,11,16
1523147099672872,2,8,-1,-48,-51,-17,4,33
1523147099674374,-16,-10,4,52,62,21,-14,-98
1523147099674374,3,2,0,2,-1,0,12,38
1523147099696433,21,57,9,39,16,-5,3,33
1523147099696433,13,-7,3,-45,-35,1,5,49
1523147099696937,-11,-6,-6,-5,-6,17,-1,-51
1523147099696937,8,-7,-7,-26,5,-8,0,35
1523147099718502,-14,2,16,10,-10,-20,-14,-41
1523147099718502,21,31,4,-2,-3,2,0,-26
1523147099719496,47,6,-9,32,31,26,9,-13
1523147099719496,-5,13,5,-82,-46,-21,1,21
1523147099733031,5,-13,18,90,44,0,-10,-15
1523147099733031,-18,9,-5,16,8,2,0,18
1523147099733534,13,2,0,-119,-67,5,8,7
1523147099733534,12,-10,6,119,70,-5,-12,25
1523147099756095,-10,-9,23,-42,-13,2,7,-18
1523147099756095,9,56,-5,18,9,-4,-7,-16
1523147099757095,39,-54,-1,-15,-10,-2,-5,-19
1523147099757095,7,9,-2,-15,-10,-2,28,96
1523147099778659,-14,-2,3,-1,3,-6,-23,-86
1523147099778659,16,-17,-2,-7,3,-4,-2,-6
1523147099779655,-73,63,-10,-9,-26,-9,-10,21
1523147099779655,-3,-15,2,2,1,-2,-19,-108
1523147099793192,6,10,-36,0,5,1,-13,-69
1523147099793192,-6,-43,-6,-4,4,3,27,83
1523147099793695,4,-32,-10,7,-7,-1,-1,7
1523147099793695,12,-14,-5,3,-3,-9,-29,-48
1523147099816254,39,29,-7,-21,-4,-4,18,118
1523147099816254,-24,-3,-2,-2,2,-1,-14,-37
1523147099816755,-31,-34,1,18,3,1,-3,13
1523147099816755,25,6,1,-9,-8,-8,-3,8
1523147099838811,-6,-24,-3,-10,-4,1,10,6
1523147099838811,-5,-22,-5,3,3,2,-4,-23
1523147099839313,-8,4,7,8,2,5,6,-1
1523147099839313,-4,5,-5,-5,-3,-3,0,-13
1523147099852851,1,1,2,-2,4,5,2,10
1523147099852851,-5,0,-6,-7,-14,-1,3,-10
1523147099853855,-6,24,12,-5,2,0,5,14
1523147099853855,-14,0,-1,-69,-7,-1,-7,-25
1523147099875911,1,-11,3,70,-5,-6,3,19
1523147099875911,-10,-16,-5,14,23,-3,-8,-37
1523147099876916,19,4,-3,8,-28,1,-8,-78
1523147099876916,7,5,-3,-105,-44,5,19,29
1523147099898471,-22,-14,14,100,51,0,-8,-38
1523147099898471,-15,-9,-8,-107,-39,-6,-1,6
1523147099899473,15,10,-3,127,35,-6,-4,16
1523147099899473,-29,-9,9,127,103,-6,-12,-18
1523147099913011,-9,5,-5,-128,-82,20,13,-8
1523147099913011,16,-2,1,20,23,4,3,1
1523147099913512,-2,-4,-5,-61,3,-2,-1,10
1523147099913512,-20,1,-2,34,-68,-13,0,-13
1523147099936070,35,-2,-1,-27,21,4,1,-10
1523147099936070,8,9,8,50,47,-1,-9,1
1523147099937074,-12,-54,-4,-39,-1,2,9,47
1523147099937074,1,-2,1,-55,-32,-2,-2,-17
1523147099958632,0,-3,-9,36,0,-10,-19,-65
1523147099958632,0,0,-4,-68,-39,7,9,-23
1523147099959634,2,18,10,59,48,3,2,13
1523147099959634,-11,-7,1,74,57,-3,-10,-9
1523147099973170,-9,-14,-3,-60,-31,-1,5,31
1523147099973170,3,-1,-2,-58,-29,-4,0,-3
1523147099973672,-8,9,-1,-16,14,1,-1,8
1523147099973672,8,-14,-5,-27,-51,-1,1,0
1523147099996231,5,23,4,10,29,-5,2,36
1523147099996231,-6,-4,-7,22,-21,-2,-6,-18
1523147099996732,15,10,5,-25,-8,-1,-1,-17
1523147099996732,-14,-6,-1,38,19,7,2,-26
1523147100018790,-9,-6,4,25,39,-3,-6,1
1523147100018790,-1,2,5,-14,-29,-2,0,-13
1523147100019293,-5,-3,-6,-9,-4,2,3,16
1523147100019293,5,4,0,-26,12,0,-1,-12
1523147100032828,70,10,-7,1,-5,-4,1,13
1523147100032828,-10,6,9,32,36,2,5,27
1523147100033833,-1,3,-3,-30,-34,-3,0,-2
1523147100033833,-2,7,-6,-6,-21,-1,1,8
1523147100056391,5,-4,0,-28,25,1,-1,1
1523147100056391,3,-6,4,16,4,-4,-1,6
1523147100056892,3,3,1,1,0,-3,-1,16
1523147100056892,-3,4,-1,22,4,14,-5,-69
1523147100078957,-19,-13,-8,-15,-20,2,9,35
1523147100078957,-4,-3,-4,-19,4,-6,-5,15
1523147100080455,-15,0,3,4,4,-5,-3,-12
1523147100080455,0,3,-7,-56,-40,-8,0,16
1523147100092490,-23,-6,2,12,28,-8,-11,-24
1523147100092490,-10,-13,-3,59,11,-5,-7,-16
1523147100101010,15,10,-4,-37,-50,18,13,8
1523147100101010,0,6,3,-5,18,-6,0,23
1523147100116049,-11,-11,-5,-34,-39,-28,-9,-11
1523147100116049,-5,-2,-1,23,53,38,5,-67
1523147100117554,-52,-13,-2,3,-16,-13,-1,16
1523147100117554,3,2,2,-19,-5,5,1,7
1523147100138610,-16,0,0,-12,-26,-21,-8,-15
1523147100138610,5,-2,-5,-66,-10,5,-4,-79
1523147100140114,-34,-9,4,61,53,2,-1,34
1523147100140114,-4,-6,0,-7,-4,4,0,13
1523147100152146,-4,-2,-7,-28,-17,-3,-1,-12
1523147100152146,72,48,-2,-14,-26,-23,9,54
1523147100161171,7,-31,9,51,30,16,-7,-124
1523147100161171,-2,0,-1,-15,-7,-8,0,-13
1523147100175728,-10,-4,0,24,10,10,-2,-30
1523147100175728,-4,1,-4,5,-17,-2,-3,15
1523147100182227,19,16,1,-31,-7,0,6,24
1523147100182227,-4,-1,0,20,6,-3,-2,17
1523147100206293,-3,-11,4,6,10,13,-3,-18
1523147100206293,-17,-10,-2,-7,-9,-4,0,23
1523147100207795,18,15,-5,-13,-22,-5,3,27
1523147100207795,-12,-12,1,12,32,-2,-8,-15
1523147100212307,-4,8,0,0,-8,9,8,19
1523147100212307,-10,-9,-3,16,-3,-6,-2,15
1523147100221330,12,2,-6,-60,-26,-5,0,6
1523147100221330,6,3,-1,7,4,-5,-3,4
1523147100236369,-8,-3,0,29,-2,3,0,-21
1523147100236369,10,-1,4,29,23,7,2,-55
1523147100237874,-14,1,0,-39,-22,4,0,-85
1523147100237874,-11,-3,3,55,37,-3,-4,-14
1523147100258932,1,-1,-6,3,-7,0,0,-22
1523147100258932,2,-5,6,6,9,-5,-5,10
1523147100260435,14,54,25,-26,-18,-5,-10,-32
1523147100260435,-11,-24,-11,-10,-6,-1,1,-4
1523147100272466,2,-18,-12,-4,1,4,21,77
1523147100272466,-10,10,9,5,-4,1,-4,-62
1523147100281491,-14,1,-1,8,8,-5,9,52
1523147100281491,6,-27,5,-4,-3,3,-6,1
1523147100296029,15,10,-8,-9,-4,3,6,26
1523147100296029,-52,-1,11,4,0,0,-10,-61
1523147100297533,5,-65,-1,2,-1,-14,6,127
1523147100297533,16,-38,-2,-11,-13,1,-4,-52
1523147100318590,29,41,-2,-6,-1,-2,-5,-71
1523147100318590,-52,-4,-3,10,1,-2,-9,-41
1523147100320094,19,12,-4,7,5,1,-12,-70
1523147100320094,-5,21,28,-20,-10,-1,4,-9
1523147100341149,23,-44,-22,16,11,8,6,22
1523147100341149,23,20,10,-10,-9,-7,8,69
1523147100342654,1,-3,-10,15,7,3,-1,-20
1523147100342654,-3,17,-11,-9,-10,-3,5,36
1523147100356693,-3,22,10,2,5,3,2,8
1523147100356693,-5,-9,-8,-1,-6,-4,-6,15
1523147100362205,3,-7,-5,-3,-9,0,-2,5
1523147100362205,23,22,0,6,13,-1,5,20
1523147100378749,-36,0,15,-32,-14,-7,-9,-28
1523147100378749,3,-21,-13,-19,-8,-2,-4,7
1523147100380253,11,4,0,49,26,-1,0,18
1523147100380253,-6,17,-7,-25,-26,1,2,-1
1523147100392286,-15,-13,3,58,44,-5,-13,-23
1523147100392286,-6,-14,-7,12,-8,3,2,-4
1523147100401310,22,14,-6,-52,-22,2,16,17
1523147100401310,1,2,0,-4,28,0,0,45
1523147100415347,-9,-9,-2,29,-38,-7,-6,-6
1523147100415347,14,1,-3,26,48,-1,-4,-8
1523147100422367,-22,-4,4,52,8,4,-4,-51
1523147100422367,-13,1,-3,-55,-29,-4,-3,-12
1523147100438408,13,4,0,-86,-32,2,2,4
1523147100438408,3,1,-2,51,18,-13,-5,25
1523147100440413,-34,-16,-13,-69,-41,-2,-11,-60
1523147100440413,2,-5,1,82,31,5,9,63
1523147100452444,-19,-7,-2,16,19,0,-2,-5
1523147100452444,3,1,-14,-107,-62,-2,6,4
1523147100461469,4,1,10,29,58,1,-4,3
1523147100461469,-35,-25,-9,6,-22,-4,-6,-39
1523147100475006,-3,8,7,-30,-23,3,-1,-2
1523147100475006,13,-2,-5,-6,-6,0,2,31
1523147100483528,1,-1,-1,-1,27,-12,-10,6
1523147100483528,11,19,-5,-36,-19,-2,4,-13
1523147100498568,-6,-10,9,93,50,10,-3,-4
1523147100498568,-2,-7,-5,-39,-27,3,3,-5
1523147100500072,-4,6,-10,-42,-10,-2,1,13
1523147100500072,1,-4,-7,4,-24,-4,-8,-34
1523147100521146,2,-4,0,-3,11,-7,-1,50
1523147100521146,4,-9,3,21,16,0,1,14
1523147100522631,2,5,-6,-11,-22,1,0,-5
1523147100522631,19,-6,-1,33,27,-5,-8,-21
1523147100536170,-11,2,2,-32,-12,-4,-5,-23
1523147100536170,1,5,-15,-13,-6,1,0,9
1523147100537672,12,-1,4,64,21,2,1,8
1523147100537672,-2,3,-1,8,-17,-1,-1,-2
1523147100558732,9,0,-7,-1,10,-2,-2,-17
1523147100558732,-10,-8,3,9,7,4,1,-7
1523147100560234,-1,2,-5,-45,-32,0,5,6
1523147100560234,2,0,0,7,11,1,-2,-10
1523147100581288,-5,-2,-1,8,9,-4,4,32
1523147100581288,3,-1,3,0,-26,-6,-3,5
1523147100582793,4,0,-3,11,9,2,-2,-7
1523147100582793,0,8,-4,-57,-43,-4,0,-4
1523147100596330,-16,-10,1,55,60,0,-8,-26
1523147100596330,7,-1,0,-14,-13,1,5,8
1523147100597833,15,-2,-1,-10,-8,-5,11,84
1523147100597833,-12,3,-1,-35,3,1,-1,-32
1523147100618889,3,0,-3,41,-19,-7,-10,-51
1523147100618889,-10,-1,-5,-26,-6,-3,1,1
1523147100620392,-8,0,-1,10,-5,-3,-9,-30
1523147100620392,9,5,0,-2,9,5,5,8
1523147100641449,3,-3,-5,-39,-40,0,9,13
1523147100641449,0,2,-1,-33,-9,0,-3,1
1523147100642953,-6,-3,6,70,50,-12,-13,-13
1523147100642953,-13,-3,0,12,-2,3,-7,-40
1523147100655989,13,-6,0,-50,-14,2,13,47
1523147100655989,2,0,-2,32,20,2,-4,5
1523147100657991,1,6,-8,-111,-72,4,4,-17
1523147100657991,-5,-4,4,74,59,-2,-18,-53
1523147100678547,-49,-15,-1,6,-11,-4,18,74
1523147100678547,15,12,3,-29,-18,1,4,-16
1523147100680051,1,-3,1,54,15,1,-3,-8
1523147100680051,-5,-7,-6,-43,6,-1,-1,5
1523147100701109,9,-1,2,61,11,-4,-16,-40
1523147100701109,-3,-5,-1,15,0,-1,2,12
1523147100702611,17,8,-1,-5,-3,3,2,24
1523147100702611,9,-2,-14,5,-2,1,9,51
1523147100715645,-14,2,-10,-113,-50,0,-3,-24
1523147100715645,-10,-8,13,98,90,-3,-12,-19
1523147100722163,-4,-3,10,26,-14,-2,-2,-33
1523147100722163,8,5,3,-32,-21,0,8,42
1523147100738706,19,5,0,-30,-7,-1,-1,8
1523147100738706,2,1,-9,-87,-38,0,-1,-12
1523147100740211,-16,-9,1,76,41,-6,-8,-19
1523147100740211,7,2,8,8,9,0,4,-21
1523147100761768,20,-6,-3,-22,-21,-1,7,52
1523147100761768,-17,22,-7,-2,-3,-2,5,29
1523147100763272,-17,-58,-18,-37,-13,0,-3,-23
1523147100763272,20,37,-3,-8,-11,1,0,-19
1523147100775304,-41,-24,-4,24,23,-2,-18,-78
1523147100775304,16,-24,0,9,-9,0,6,18
1523147100782322,-20,46,13,-13,1,2,-2,-19
1523147100782322,78,-18,-8,19,3,-5,23,122
1523147100798866,-73,-3,-5,-23,-8,-2,-14,-82
1523147100798866,34,-15,-25,29,13,-6,-20,-75
1523147100800371,-16,20,-11,-6,-3,6,5,-67
1523147100800371,-26,-2,10,-23,-10,-7,-4,49
1523147100821426,58,6,28,-7,1,-2,4,41
1523147100821426,-76,-46,4,5,-4,-5,-1,34
1523147100822932,-5,-7,-9,-19,-6,-9,-18,-28
1523147100822932,17,14,11,-9,-8,4,4,8
1523147100835466,11,-12,-8,3,3,-1,-3,-4
1523147100835466,-8,-8,0,20,12,3,-6,-22
1523147100842486,23,23,7,-12,-3,7,15,53
1523147100842486,-48,3,3,-5,-4,-6,-13,-55
1523147100858525,14,11,-3,5,6,2,-4,-16
1523147100858525,15,23,12,2,1,2,4,-1
1523147100860029,9,-5,-15,-5,-5,-1,6,23
1523147100860029,-14,-12,-8,-4,-6,-8,-14,-34
1523147100881086,13,6,-2,3,4,8,6,-4
1523147100881086,20,8,-1,-12,-1,4,5,10
1523147100882589,-13,-9,4,27,8,-4,-3,1
1523147100882589,-9,-14,-8,-36,-16,-1,-5,-20
1523147100895625,2,3,-6,7,11,2,2,6
1523147100895625,-1,22,8,27,-2,-1,-4,16
1523147100902141,7,-9,-5,9,-1,-1,-2,3
1523147100902141,-18,-9,5,88,31,-5,-6,-12
1523147100918684,7,18,-7,-112,-73,3,4,-43
1523147100918684,14,-6,6,102,59,4,3,18
1523147100920190,14,-10,4,-51,-5,-3,2,48
1523147100920190,-1,5,-11,-61,-7,-2,-2,12
1523147100941248,16,-49,-3,5,-18,-3,-2,-2
1523147100941248,-29,-11,-3,5,-1,-4,-10,-44
1523147100942752,23,21,4,-7,11,1,4,40
1523147100942752,-5,-1,-8,-18,-17,-2,7,52
1523147100954781,4,21,2,-14,10,3,2,28
1523147100954781,1,9,4,-47,-12,-5,-7,-25
1523147100963806,-4,-22,-2,58,1,-8,1,-12
1523147100963806,-9,-2,5,98,53,9,-7,-52
1523147100978847,12,17,-5,-44,-10,0,7,31
1523147100978847,3,0,-5,-67,-30,-4,2,9
1523147100980351,-9,3,-2,-22,-5,-2,-3,-23
1523147100980351,-4,-10,3,39,32,5,-3,-14
1523147101001405,-3,-2,-20,6,-11,-2,-3,-2
1523147101001405,1,2,-1,-71,-23,-1,5,-4
1523147101002910,-10,-17,-11,25,-6,-6,-7,-14
1523147101002910,11,6,2,-51,-28,4,10,47
1523147101014940,8,2,7,53,45,1,-2,16
1523147101014940,-16,-2,-14,-69,-78,-3,4,16
1523147101023967,-12,11,5,11,31,5,0,-9
1523147101023967,-5,-7,-1,-11,-1,-1,-3,-23
1523147101039005,-4,-8,1,4,4,-3,-5,-28
1523147101039005,14,5,-3,35,19,0,-1,-3
1523147101041012,2,0,1,-21,-7,1,-2,-3
1523147101041012,-12,-7,-2,-26,-12,-3,-2,-11
1523147101061067,-11,16,-1,-8,-2,0,2,4
1523147101061067,0,1,4,75,24,-1,-3,-12
1523147101062569,-3,-5,0,0,4,2,-1,-2
1523147101062569,1,2,-4,-69,-36,1,-4,-58
1523147101074601,-2,-1,8,38,8,-4,-2,20
1523147101074601,-3,-1,-1,6,16,1,1,1
1523147101083625,1,-4,0,-41,-18,-1,-3,-3
1523147101083625,4,2,-4,-17,-27,-3,-3,-14
1523147101098664,15,2,0,4,17,-4,-8,-27
1523147101098664,-63,-27,-1,32,19,-8,-6,-4
1523147101100169,14,19,2,-17,-16,1,-5,-18
1523147101100169,2,2,-4,-53,-20,4,9,9
1523147101121224,-5,1,-1,29,30,1,-2,-6
1523147101121224,28,6,9,20,17,-4,-3,-13
1523147101122728,-13,-7,-3,-37,-37,0,4,20
1523147101122728,-4,-3,0,-14,-1,-1,-1,7
1523147101134760,-13,-3,-1,48,21,-1,-3,-8
1523147101134760,9,-5,-1,39,0,0,-7,-36
1523147101143785,0,-2,4,11,16,-3,0,27
1523147101143785,11,-10,-13,21,21,-3,-4,0
1523147101158826,-5,8,-3,-86,-46,-3,5,6
1523147101158826,4,3,-2,44,24,-2,-4,8
1523147101160329,-1,-3,2,32,-2,-3,-3,-14
1523147101160329,10,0,1,20,1,-2,4,18
1523147101181383,3,6,-1,-73,-43,0,0,-1
1523147101181383,4,3,1,22,30,-2,-3,-2
1523147101182888,-3,-7,0,-2,4,3,0,-14
1523147101182888,-5,0,0,10,3,-1,4,20
1523147101194920,-11,4,6,20,4,-3,-1,11
1523147101194920,27,11,-1,-111,-44,4,9,14
1523147101203945,-9,-3,-21,47,36,3,-4,-4
1523147101203945,-16,-1,10,54,17,-6,-25,-84
1523147101218486,27,-6,2,13,11,5,23,71
1523147101218486,-23,10,10,-36,-18,1,0,-13
1523147101220488,13,7,-8,-55,-19,1,0,-18
1523147101220488,-12,1,11,-21,-10,-4,-6,-17
1523147101241046,3,-15,-15,33,18,0,-5,-15
1523147101241046,-6,-4,4,-3,7,3,0,7
1523147101242548,0,-10,2,-9,-1,-2,1,-6
1523147101242548,0,3,-5,13,0,0,3,30
1523147101254582,-24,-11,-6,11,-2,-5,-13,-33
1523147101254582,23,20,0,-8,-8,-2,8,33
1523147101263604,-35,19,3,-20,-18,-8,-9,-4
1523147101263604,15,35,-35,26,17,7,15,47
1523147101278642,-77,-71,8,-19,-13,-7,-16,-27
1523147101278642,65,14,-18,15,6,4,9,34
1523147101280148,0,6,12,-3,-5,-8,-32,-101
1523147101280148,34,7,19,-6,-1,3,13,36
1523147101301203,0,7,-3,9,6,-2,7,64
1523147101301203,-39,11,5,1,-5,-5,-24,-106
1523147101302708,24,-38,9,-15,-9,-5,9,40
1523147101302708,-43,-47,-16,-15,-9,-10,-12,-27
1523147101314738,49,36,14,26,17,7,17,74
1523147101314738,-37,-27,-13,-21,-15,-3,-4,-36
1523147101323765,12,12,1,-3,0,2,0,12
1523147101323765,13,-1,6,5,3,0,-2,22
1523147101338803,27,14,2,8,3,-1,0,-32
1523147101338803,-29,-8,5,-7,-4,1,6,31
1523147101340309,-3,1,-6,6,3,1,5,18
1523147101340309,0,-1,-10,2,-1,-2,-3,-9
1523147101360863,-14,11,11,-7,-9,3,-5,-33
1523147101360863,11,-4,-4,14,19,1,-2,14
1523147101362868,-1,0,-5,0,-4,0,1,-1
1523147101362868,-2,-1,-1,-80,-35,-4,-3,-9
1523147101374901,-5,-9,-4,75,58,-3,-11,-29
1523147101374901,7,-7,-7,-62,-51,-4,0,4
1523147101383925,2,1,3,-54,3,2,6,18
1523147101383925,-11,-3,4,9,3,2,2,-10
1523147101397962,-18,-11,-2,74,62,-15,-22,-40
1523147101397962,14,-1,-3,-43,-18,1,2,14
1523147101404981,20,10,-7,-75,-67,5,10,12
1523147101404981,-17,-6,12,74,84,-10,-14,-9
1523147101421022,10,7,-11,-94,-44,1,-3,-35
1523147101421022,0,-2,4,-9,20,7,10,8
1523147101423028,18,-1,-6,-22,-1,4,3,4
1523147101423028,-13,37,4,24,-18,-1,-4,-33
1523147101434564,-3,-36,-2,-50,-28,-2,-3,17
1523147101434564,2,-15,-10,40,7,-3,-1,1
1523147101443582,-17,-9,5,74,28,-6,-7,-13
1523147101443582,6,5,0,-8,-9,2,0,-4
1523147101458122,0,17,-5,-95,-75,-1,6,-5
1523147101458122,-8,4,8,73,69,-4,-8,-1
1523147101464640,-8,-11,-4,-20,-5,-2,2,7
1523147101464640,4,-12,-6,-7,-11,-4,-2,9
1523147101481184,-13,3,2,53,24,5,2,-3
1523147101481184,-3,-13,-6,-53,-29,-4,-4,-16
1523147101482688,6,10,6,47,26,1,1,13
1523147101482688,-7,-4,-2,-88,-36,2,2,9
1523147101503742,6,7,-6,4,-15,-2,0,-4
1523147101503742,1,6,2,36,20,-1,-6,-16
1523147101505246,-24,-3,-1,-33,-8,-2,0,-4
1523147101505246,9,-6,5,45,20,3,2,20
1523147101518785,4,8,-1,7,-6,1,-2,-18
1523147101518785,3,2,-3,-56,-38,0,5,23
1523147101520288,-5,-9,0,67,59,0,-7,-14
1523147101520288,7,-4,-2,-22,-15,3,4,19
1523147101541341,-11,9,5,19,14,-3,-1,4
1523147101541341,6,-11,-6,-29,-15,0,3,1
1523147101542847,5,6,-2,-35,-37,-1,4,6
1523147101542847,-10,-4,-1,10,-3,-3,-7,-30
1523147101563903,1,-1,2,36,34,-5,-3,6
1523147101563903,2,-1,-17,-46,-32,3,4,9
1523147101565407,-7,-7,-5,11,4,0,1,5
1523147101565407,-2,-5,3,49,24,-4,-6,-14
1523147101578441,6,4,-5,-46,-33,-4,2,0
1523147101578441,9,0,3,3,-2,2,2,8
1523147101580447,-34,-1,3,8,23,-2,-1,-4
1523147101580447,0,-2,2,5,-24,-4,-4,-4
1523147101601002,6,2,-7,-23,6,7,4,4
1523147101601002,-8,-1,9,64,20,-9,-8,5
1523147101602506,32,6,-4,-22,-18,2,3,14
1523147101602506,-6,-4,-2,-54,-14,1,4,-7
1523147101623561,-9,-5,-8,-25,-14,-3,-1,8
1523147101623561,2,4,9,72,41,-1,-8,-13
1523147101625065,20,7,-2,-20,4,3,1,-1
1523147101625065,1,-2,-1,-24,-17,1,3,-32
1523147101638102,-43,-9,-1,-4,4,-4,-6,-6
1523147101638102,1,6,0,-25,-25,-2,3,-1
1523147101644617,1,-4,-2,14,1,-5,-4,-1
1523147101644617,-2,0,2,17,20,2,-2,-8
1523147101661665,15,-2,2,-10,1,2,5,12
1523147101661665,-5,-6,-3,-33,-39,-6,-2,-12
1523147101663668,-17,-5,-1,-38,10,-4,-3,-1
1523147101663668,-3,-13,-10,95,40,-13,-12,-1
1523147101683722,11,5,-1,-4,-46,-4,1,-8
1523147101683722,-10,6,22,-45,-8,5,5,25
1523147101685229,3,-4,-7,4,-27,-4,-2,-8
1523147101685229,5,-1,17,-16,32,3,1,6
1523147101697759,12,3,-1,-49,-42,-5,-3,-7
1523147101697759,-14,7,28,61,49,-6,-12,-44
1523147101704780,-6,-12,-6,-7,-28,3,7,35
1523147101704780,-4,5,-3,-38,-15,5,6,39
1523147101721322,-43,-11,-17,19,16,-3,-4,-15
1523147101721322,-26,16,30,-48,-26,-5,-7,-19
1523147101722828,8,-11,-20,26,17,-2,-2,2
1523147101722828,-31,11,-8,5,-4,-6,-10,-62
1523147101743380,6,-74,-7,13,14,2,5,26
1523147101743380,41,1,-17,-7,4,1,5,27
1523147101745387,-8,0,-33,25,19,5,-5,-34
1523147101745387,46,0,-44,3,-14,5,13,49
1523147101757920,42,-50,1,2,11,3,6,15
1523147101757920,10,6,-7,6,-3,-8,-10,-3
1523147101764937,26,0,-6,5,-2,1,7,15
1523147101764937,53,0,9,-31,-17,0,2,26
1523147101780980,-14,20,-17,29,24,8,7,20
1523147101780980,-8,-26,-34,16,6,1,2,17
1523147101782985,30,12,23,-14,-12,-7,2,30
1523147101782985,10,-8,6,-14,-3,3,2,-14
1523147101803544,-46,43,42,-7,6,-3,0,-7
1523147101803544,-3,3,1,4,-6,-5,-9,-23
1523147101805044,-38,0,16,-7,-4,-3,-13,-94
1523147101805044,41,49,3,2,3,2,1,10
1523147101818081,38,-16,-54,29,12,10,20,55
1523147101818081,-32,-16,-10,-7,-2,-2,-8,-43
1523147101824600,5,-7,-12,5,2,-2,-5,0
1523147101824600,-22,-5,6,-14,-8,-2,-2,12
1523147101841140,5,68,13,3,1,-1,-9,-33
1523147101841140,0,-63,-14,0,2,2,7,20
1523147101842644,-1,15,15,-6,-3,-2,0,11
1523147101842644,-33,-8,29,-16,-10,-7,-5,-15
1523147101863701,4,21,-1,-50,-29,-3,-9,-19
1523147101863701,-24,-1,-3,75,47,1,-1,-1
1523147101865206,-13,0,14,-15,-8,-3,-6,-4
1523147101865206,-10,-5,-4,-22,-13,3,-1,-14
1523147101877236,-1,-9,11,-11,-2,0,-1,-17
1523147101877236,26,19,-5,-52,-6,-2,1,0
1523147101886260,-19,-6,6,68,7,-6,-2,13
1523147101886260,-14,0,-7,-35,-22,0,-1,10
1523147101901300,5,2,2,62,16,-8,-7,-10
1523147101901300,11,9,-1,-37,5,7,6,14
1523147101902804,1,-3,-8,8,8,2,-1,-26
1523147101902804,-18,-8,-10,-45,-7,4,1,-3
1523147101923862,0,4,12,-8,-26,-1,-2,-12
1523147101923862,-10,3,6,-7,2,0,3,15
1523147101925371,-3,0,-2,-74,-38,-2,1,-7
1523147101925371,-26,-11,0,105,59,-10,-9,0
1523147101937395,-5,-5,1,-19,-5,1,-1,-8
1523147101937395,0,12,-6,-43,-43,2,7,-5
1523147101946420,0,-3,5,56,43,0,-5,-2
1523147101946420,-6,-10,-5,20,-11,-9,-6,-2
1523147101960959,10,2,2,0,9,-4,-7,-10
1523147101960959,12,4,-6,-5,-18,0,5,9
1523147101962965,9,12,1,-19,11,3,1,0
1523147101962965,8,3,2,-11,-13,6,6,4
1523147101983520,-2,-2,-1,-20,11,-4,-2,-3
1523147101983520,4,-1,3,18,8,-2,-3,6
1523147101985524,15,5,0,-56,-22,-1,4,10
1523147101985524,-17,-7,2,5,1,2,1,-13
1523147101997055,2,1,-3,76,32,1,-1,5
1523147101997055,-5,9,-2,-38,-12,2,3,-8
1523147102006079,-1,4,-1,-39,-15,-3,3,19
1523147102006079,11,2,6,51,36,-6,-8,-4
1523147102021121,0,-7,-5,-39,-19,-1,-4,-8
1523147102021121,-23,-12,-28,24,3,0,1,4
1523147102022624,0,-6,-4,-13,-13,-1,-1,-5
1523147102022624,-5,-7,0,17,6,-4,-4,1
1523147102043678,-5,-5,-2,-10,5,3,0,-8
1523147102043678,5,4,8,-10,-9,-3,-2,-2
1523147102045183,-6,-8,-8,23,-4,2,2,7
1523147102045183,-5,-3,-7,-9,20,-4,-6,-18
1523147102057217,-3,0,2,13,-11,-4,-4,-3
1523147102057217,9,3,3,31,-8,-2,1,4
1523147102066239,-5,-6,-4,-89,-22,-4,-2,-4
1523147102066239,3,1,0,1,8,2,3,6
1523147102081279,-5,-2,5,13,13,-4,-2,-1
1523147102081279,12,4,-5,-53,-45,0,3,9
1523147102082784,-9,-15,-17,86,59,-1,-6,3
1523147102082784,1,-3,-4,-2,-19,0,1,0
1523147102103839,-12,1,1,-70,-19,0,0,-3
1523147102103839,8,0,-2,-23,-3,-2,-1,-3
1523147102105343,-27,-5,7,75,39,-2,-10,-33
1523147102105343,32,4,0,-56,-39,3,15,65
1523147102117380,3,3,-5,-14,-14,0,3,5
1523147102117380,-1,3,7,-31,15,-1,-7,-10
1523147102126400,-1,-1,6,65,29,0,-2,-9
1523147102126400,7,-2,1,-23,-18,-1,1,-15
1523147102140938,3,0,1,-6,-4,-3,2,8
1523147102140938,6,-1,-4,-51,-5,1,3,7
1523147102147457,-4,-1,2,20,-7,-9,-9,1
1523147102147457,-19,-5,0,62,32,-1,-6,-21
1523147102163500,4,3,2,1,-2,4,3,4
1523147102163500,-2,-4,-2,6,0,-3,-3,-6
1523147102165505,14,5,9,-67,-37,-1,5,7
1523147102165505,-7,-2,-2,26,13,-1,-2,-12
1523147102177535,1,-1,14,8,22,-3,-7,-19
1523147102177535,-41,-22,-18,53,20,-1,-3,4
1523147102186559,-16,-3,0,-23,-21,5,2,4
1523147102186559,-6,-1,-5,-27,-17,-3,-1,-7
1523147102201097,14,6,-5,-43,-21,1,0,6
1523147102201097,2,-1,16,85,44,-3,-6,-8
1523147102202602,5,5,3,-17,-16,-1,2,5
1523147102202602,0,6,-28,-31,-7,1,1,-6
1523147102223662,-1,-11,-4,10,4,-4,-3,-4
1523147102223662,17,5,-13,-58,-22,0,3,3
1523147102225165,9,9,23,42,11,1,-2,-3
1523147102225165,4,-10,9,33,15,-2,0,-2
1523147102237197,-2,27,-29,-6,-9,1,3,2
1523147102237197,2,-64,-8,3,-6,-3,-11,-47
1523147102246219,73,22,-2,-29,-9,-2,8,59
1523147102246219,-22,-34,7,-32,-14,3,3,17
1523147102261258,-2,18,35,22,5,-4,-13,-30
1523147102261258,-19,-71,9,11,2,1,1,1
1523147102262762,-14,88,-20,-13,-2,0,0,-26
1523147102262762,-16,-89,11,-25,-19,-8,6,74
1523147102283817,24,-11,-8,17,13,1,0,0
1523147102283817,-46,12,-4,9,1,-4,10,52
1523147102285323,-55,-16,-11,-15,-11,-3,-8,-34
1523147102285323,20,42,-3,-3,-3,-1,2,10
1523147102297355,-41,-6,7,0,-1,2,2,2
1523147102297355,69,26,13,15,2,1,0,1
1523147102306378,-23,-37,-19,5,5,1,-2,-11
1523147102306378,21,31,-3,-21,-7,-1,7,31
1523147102320920,31,-12,-6,7,4,2,1,13
1523147102320920,-36,23,-15,8,-1,-2,-7,-24
1523147102322922,18,-56,-3,2,6,4,2,13
1523147102322922,5,32,-3,2,0,3,-5,-27
1523147102343477,-31,-18,-2,0,-1,-2,4,15
1523147102343477,23,1,-1,9,4,-1,0,20
1523147102345481,-8,-8,3,-12,-5,-1,-1,-5
1523147102345481,7,0,2,-12,-7,0,-5,-24
1523147102357515,6,29,-8,9,3,0,-1,-2
1523147102357515,-2,30,2,1,-2,1,-2,-12
1523147102366037,10,-5,1,-6,-9,-3,-2,2
1523147102366037,-7,45,-7,-21,-2,1,-4,-33
1523147102380577,-8,-22,-3,9,20,-8,-8,0
1523147102380577,2,11,7,-15,-17,0,-2,-2
1523147102387596,-2,-2,5,12,10,-2,0,-2
1523147102387596,-4,13,4,23,-12,-1,-1,-5
1523147102403637,-1,7,9,-32,6,3,1,-3
1523147102403637,5,2,0,45,12,-6,-3,-2
1523147102405142,-15,-9,-8,-23,-7,-1,-1,-1
1523147102405142,-16,-15,-8,-100,-42,3,-1,-15
1523147102426198,21,40,-3,90,43,6,2,-3
1523147102426198,-32,-25,4,10,-7,-7,-12,-17
1523147102427701,35,42,3,-93,-41,3,8,22
1523147102427701,-15,-15,-1,-19,34,-3,-7,-17
1523147102440735,-13,-9,-5,-8,-34,-2,-3,-21
1523147102440735,28,21,-1,-12,7,5,6,33
1523147102447253,-7,-1,5,46,32,-3,-3,-1
1523147102447253,-1,-5,3,46,-15,-3,-7,-10
1523147102463797,4,-16,-6,22,29,-4,-3,2
1523147102463797,8,10,3,-42,-7,2,6,-12
1523147102465302,-21,-24,-10,48,-15,-7,-8,-9
1523147102465302,5,7,9,7,-7,0,1,2
1523147102486356,-4,-26,-8,-96,-54,-2,1,4
1523147102486356,-4,-4,12,76,67,-1,-3,-4
1523147102487861,-2,8,-4,-35,-14,1,2,-4
1523147102487861,-7,-16,-11,-18,-7,-4,6,17
1523147102500394,-20,-11,-7,58,17,-6,-7,-3
1523147102500394,7,9,-7,-58,-43,2,1,-4
1523147102507413,14,19,2,-9,-1,2,1,-13
1523147102507413,-9,-41,-1,-31,1,1,1,-12
1523147102523958,-4,-8,1,40,0,-2,-2,-2
1523147102523958,21,19,-7,-8,-10,-1,1,7
1523147102525461,-15,0,5,-34,-3,-2,-4,-8
1523147102525461,5,14,0,29,11,0,-2,-9
1523147102546018,2,-1,-1,-43,-27,-2,4,4
1523147102546018,-4,1,2,24,12,-1,-4,-16
1523147102548020,0,-14,-5,-21,-23,0,1,3
1523147102548020,2,4,0,15,15,-5,-3,-4
1523147102560555,-13,-1,1,22,25,-5,-10,-20
1523147102560555,-3,1,0,4,-6,2,8,27
1523147102567573,2,-9,-8,-25,-11,0,1,1
1523147102567573,-4,-1,-9,-30,-14,-1,-3,1
1523147102583618,11,4,7,50,28,-2,-4,-5
1523147102583618,-11,-5,-2,-28,-14,-4,-4,-10
1523147102585120,-9,-5,-3,-23,-12,4,4,-3
1523147102585120,0,0,-14,37,34,-2,-4,-10
1523147102613696,-2,-5,3,34,7,-5,-5,-4
1523147102613696,-10,-1,-6,-31,-11,-2,-6,-32
1523147102615200,35,2,0,17,11,-1,3,30
1523147102615200,-16,7,5,-1,11,0,-3,-17
1523147102620714,3,0,-6,-66,-56,-3,4,9
1523147102620714,-5,-1,-2,46,20,-4,-4,3
1523147102627232,15,-30,1,9,10,2,-1,-8
1523147102627232,-23,-7,-2,15,2,-3,-1,8
1523147102643775,5,-5,-9,-43,-39,3,8,5
1523147102643775,7,0,6,26,30,-2,-2,-3
1523147102645280,-4,1,0,19,-2,-5,-6,-8
1523147102645280,6,5,4,-10,-7,2,3,8
1523147102666335,-24,-4,1,-15,-5,0,0,3
1523147102666335,-3,-2,-10,-46,-19,-1,-2,3
1523147102667845,-12,2,4,16,32,2,-4,-5
1523147102667845,17,10,26,53,20,0,-5,-17
1523147102680372,-6,5,-6,-30,-5,-2,-3,-17
1523147102680372,6,6,1,-24,-24,0,5,10
1523147102687394,-9,0,-2,-14,-1,-4,-4,-3
1523147102687394,12,3,8,-7,-21,-3,-4,-4
1523147102703936,-2,-8,2,22,19,7,5,8
1523147102703936,33,13,-2,-13,-7,1,2,0
1523147102705941,-9,-1,-3,22,5,0,-1,-5
1523147102705941,-4,0,-9,-18,-19,-1,-1,2
1523147102725998,3,1,2,-9,5,-1,2,6
1523147102725998,-10,-9,-3,6,9,1,0,0
1523147102728000,10,15,26,22,2,-3,-1,-1
1523147102728000,-2,-2,-9,-9,-7,-4,-2,-5
1523147102740535,14,1,-1,-53,-12,-2,-1,4
1523147102740535,-3,-4,4,80,21,-1,-2,-1
1523147102747052,-35,-9,8,-10,2,-7,-10,-14
1523147102747052,-17,-7,-9,-5,-8,1,3,28
1523147102763595,26,5,2,5,10,1,-1,1
1523147102763595,-41,-11,-8,-21,-6,2,-12,-61
1523147102765102,-28,-30,-20,-7,-11,-3,17,79
1523147102765102,37,11,7,8,3,2,8,39
1523147102786154,19,4,-8,-8,-3,-1,-5,-19
1523147102786154,36,-8,-11,-5,-2,3,7,45
1523147102787664,2,22,-14,12,4,1,7,-12
1523147102787664,61,-46,-4,-12,-3,0,-5,24
1523147102800693,-8,5,-2,0,0,-5,5,41
1523147102800693,60,-19,-19,1,4,3,7,3
1523147102807211,19,-37,23,7,1,4,5,16
1523147102807211,-65,-19,-16,-9,-10,-14,-23,-66
1523147102823756,52,-11,-11,0,-7,-7,-12,3
1523147102823756,-65,0,6,-3,-5,-2,8,22
1523147102825260,12,-8,3,-9,-4,-1,-2,36
1523147102825260,39,31,24,-9,1,5,1,-42
1523147102846315,-51,-22,-3,4,4,2,1,16
1523147102846315,-19,-83,-8,-21,-14,-7,-5,-15
1523147102847819,-4,35,-5,10,5,-1,-4,-20
1523147102847819,-27,3,6,-5,0,-2,1,-10
1523147102860353,-9,0,-5,5,2,1,1,-10
1523147102860353,11,30,8,-5,-5,-3,3,23
1523147102867371,-6,5,1,-1,-1,-2,-7,-27
1523147102867371,2,-11,-12,4,2,-1,-3,-11
1523147102883914,2,25,6,-3,-1,7,7,-2
1523147102883914,-7,13,-4,-81,-33,-2,-1,-1
1523147102885422,-11,-17,-10,90,49,-8,-19,-52
1523147102885422,-1,15,-8,-2,-8,-4,3,11
1523147102905975,4,2,-1,-58,-36,0,3,6
1523147102905975,-19,11,14,48,35,-1,-7,-19
1523147102907980,1,4,-2,21,18,3,-1,-6
1523147102907980,-2,-1,-12,-36,-42,-1,7,22
1523147102920011,-8,-2,-1,-60,-18,-4,-1,-8
1523147102920011,3,-6,9,80,57,-7,-15,-17
1523147102928534,11,18,-9,-102,-32,1,5,-1
1523147102928534,-11,0,3,76,55,-1,-5,-2
1523147102942571,-6,-6,-1,-13,-30,0,-2,-19
1523147102942571,12,19,-5,-83,-37,3,5,6
1523147102951095,0,-1,4,96,41,-4,-13,-23
1523147102951095,3,-6,3,-20,6,3,9,19
1523147102966134,0,6,-2,-14,2,3,3,0
1523147102966134,-10,5,5,38,17,-2,-5,1
1523147102967639,-26,1,-2,-37,-35,-2,0,-10
1523147102967639,-8,-7,-17,-101,-48,-3,1,-1
1523147102980170,-2,-4,8,127,78,-7,-9,-8
1523147102980170,5,9,5,15,0,3,5,-2
1523147102988695,8,-2,-8,-91,-57,3,5,1
1523147102988695,-3,3,4,47,30,1,0,-6
1523147103003733,-3,1,-1,-12,8,-2,-2,3
1523147103003733,-6,2,-4,-43,-23,-4,-2,-4
1523147103005239,11,-1,-7,-32,-13,0,2,5
1523147103005239,-2,-1,7,40,20,-3,-6,-5
1523147103026292,0,-3,-1,-13,-23,-1,4,5
1523147103026292,8,6,-6,8,4,1,-6,-28
1523147103027807,-22,-5,-2,-25,16,4,2,0
1523147103027807,-15,-3,1,23,-39,-10,-3,7
1523147103039833,-7,-15,-2,-11,7,0,-2,-10
1523147103039833,0,20,1,-12,-6,0,-1,-6
1523147103048855,2,-5,-23,10,-5,2,4,7
1523147103048855,-2,5,2,-5,22,3,-2,-9
1523147103063895,1,-6,3,31,15,-3,-7,-17
1523147103063895,7,0,-6,-85,-49,-1,5,17
1523147103065398,3,-5,-2,65,49,-2,-3,-1
1523147103065398,8,5,-2,20,-18,0,0,1
1523147103086455,6,8,4,-18,-10,2,2,1
1523147103086455,-2,1,-6,-12,-8,0,1,11
1523147103087958,9,5,5,-37,-16,-2,0,4
1523147103087958,-3,-2,-3,-2,24,3,0,-6
1523147103099989,3,1,8,38,7,-2,-2,2
1523147103099989,14,-2,2,-6,-3,2,2,-1
1523147103109014,27,3,7,2,-4,0,-1,0
1523147103109014,14,2,-15,-57,-11,2,5,6
1523147103123554,-1,5,-8,-32,-12,-3,-1,-2
1523147103123554,33,9,0,-35,-26,-7,2,14
1523147103125056,-12,-4,13,113,85,0,-10,-19
1523147103125056,-4,-1,-2,-56,-27,4,1,-7
1523147103146112,13,-7,-5,2,1,-5,-5,-1
1523147103146112,-19,-36,-14,15,-4,-9,-1,7
1523147103147617,-33,9,0,-35,-28,-7,-8,-45
1523147103147617,-9,3,1,-8,0,2,0,15
1523147103168675,-7,-12,1,37,16,-2,-2,-5
1523147103168675,-2,6,5,34,13,5,1,-5
1523147103170176,3,-24,-13,-21,-22,-7,-8,-12
1523147103170176,-8,3,-9,22,13,-1,0,-3
1523147103183713,-9,7,-5,-72,-42,0,4,-1
1523147103183713,-9,-1,6,3,38,5,-3,-7
1523147103185217,-3,-5,4,101,35,-6,-7,8
1523147103185217,13,4,10,-30,-22,-1,0,-5
1523147103206275,-4,-1,6,-8,-3,-1,2,4
1523147103206275,5,13,6,-2,-2,-1,1,2
1523147103207779,5,-4,0,-77,-28,3,6,20
1523147103207779,-2,-1,4,48,11,-2,-2,-3
1523147103219812,-2,4,6,-17,12,1,-1,-7
1523147103219812,-24,-12,-1,48,9,-1,-10,-56
1523147103228833,-28,5,-2,-39,-24,-1,11,65
1523147103228833,-5,-6,-7,-31,-23,-4,-2,-8
1523147103243374,0,0,-7,-17,-8,0,-6,-15
1523147103243374,3,14,11,29,16,-4,-1,10
1523147103245377,-1,-42,-14,4,-7,2,-1,-17
1523147103245377,22,-28,0,3,11,-2,0,6
1523147103266433,23,3,-16,14,3,-2,1,21
1523147103266433,-12,16,-3,1,-6,-5,-27,-83
1523147103267938,0,-17,6,-13,-5,6,-1,-52
1523147103267938,-15,29,11,8,12,4,19,90
1523147103279968,3,-43,-2,-15,-12,-11,-4,-9
1523147103279968,63,40,-15,0,-4,1,-9,30
1523147103288993,-27,35,8,-7,-1,5,16,41
1523147103288993,62,-14,-3,8,5,2,-25,-79
1523147103303532,-21,52,10,6,7,8,26,72
1523147103303532,-96,-33,-3,-9,-7,-8,-13,-66
1523147103305036,39,-34,0,-2,-4,-4,-12,-6
1523147103305036,-7,-10,2,3,3,-2,9,50
1523147103326091,35,14,0,0,2,3,2,19
1523147103326091,-17,-32,-15,-6,-3,3,9,8
1523147103327596,-1,54,7,-10,-8,-3,-2,-6
1523147103327596,-9,-5,-2,-4,-2,-6,-8,-36
1523147103348654,32,-2,-2,8,4,0,-9,-44
1523147103348654,10,-13,7,-7,-5,1,12,45
1523147103350158,-5,-15,-7,-5,-8,-3,-2,-8
1523147103350158,-5,7,-5,-11,-8,-2,-4,-13
1523147103363692,-28,-5,4,-3,15,-2,0,0
1523147103363692,7,10,-3,25,9,2,5,20
1523147103369707,-3,2,-6,-32,-27,-6,-9,-1
1523147103369707,-12,1,0,-35,-18,-1,5,-6
1523147103386251,-24,-5,4,112,62,-4,-12,-15
1523147103386251,22,6,-5,-109,-41,7,13,19
1523147103387757,22,2,5,-12,23,5,2,-1
1523147103387757,-10,-9,-7,-43,-22,-4,-9,-14
1523147103408811,-15,-2,-2,22,6,1,-4,-34
1523147103408811,14,2,6,-14,-2,-2,11,63
1523147103410318,-10,42,2,-25,-5,-1,5,19
1523147103410318,6,10,9,63,53,0,-7,-41
1523147103422849,9,3,-1,-60,-49,-6,-6,4
1523147103422849,-4,-4,1,9,-15,1,-2,-30
1523147103429869,-17,-14,-15,-84,-46,3,13,11
1523147103429869,-14,2,8,74,61,-1,-9,-22
1523147103446412,-11,-13,-15,-39,-49,-3,10,78
1523147103446412,-1,-36,-3,82,74,-4,-11,-10
1523147103448417,-3,15,3,23,-14,0,4,-9
1523147103448417,-10,-1,-7,-24,-21,0,3,6
1523147103468470,0,-2,2,-51,-1,5,1,-18
1523147103468470,0,7,0,-3,-23,-8,-2,3
1523147103470475,-2,2,4,44,30,-1,-7,-1
1523147103470475,0,-3,-7,-33,-29,3,4,12
1523147103482507,-10,3,-1,-17,3,-1,1,-18
1523147103482507,-7,11,0,5,0,-2,1,4
1523147103491535,13,-9,-3,-16,3,0,-6,-17
1523147103491535,2,1,-3,79,-9,-4,0,6
1523147103506072,-15,1,6,-32,-5,-2,-9,-30
1523147103506072,2,-4,-3,5,3,4,6,33
1523147103508078,25,-4,-2,17,-8,-1,3,-3
1523147103508078,-15,-6,-6,-52,-8,0,1,12
1523147103528633,0,39,-1,43,26,-5,-9,-13
1523147103528633,6,-16,0,-3,-20,-4,0,3
1523147103530136,-12,-2,-2,-8,-10,-2,0,0
1523147103530136,2,4,-2,-64,-10,2,5,6
1523147103543168,-3,1,7,103,44,-3,-9,-19
1523147103543168,-17,1,0,3,2,-3,-6,-21
1523147103549686,10,-3,-1,-36,-14,0,2,10
1523147103549686,2,-2,-5,-21,-10,-2,1,-5
1523147103566230,-9,-19,-3,38,-1,-1,-1,2
1523147103566230,3,4,4,-4,8,-2,-2,-8
1523147103567735,-5,-9,-5,-1,-2,3,0,-1
1523147103567735,23,-2,-2,43,14,-6,-7,-6
1523147103588790,1,-5,3,-21,-8,1,1,4
1523147103588790,-2,6,-3,-17,-16,-2,0,3
1523147103590295,-2,8,4,27,19,1,-2,-10
1523147103590295,18,-1,0,-11,-5,-1,2,23
1523147103602828,6,-4,-3,-33,-37,-3,2,6
1523147103602828,-1,-1,0,8,15,2,-2,-5
1523147103609846,1,-3,1,8,4,-2,-2,7
1523147103609846,-12,0,-1,-2,0,-3,-7,-18
1523147103626393,3,-6,-9,-63,-37,-1,2,1
1523147103626393,-14,-5,5,45,53,4,-1,4
1523147103627899,12,1,-2,17,-4,-3,-5,-12
1523147103627899,-28,-7,3,32,12,0,2,1
1523147103648449,4,-1,-8,-83,-42,-1,5,3
1523147103648449,1,-3,5,66,48,-3,-9,-10
1523147103650455,2,-3,-2,-3,3,-1,0,1
1523147103650455,-6,-1,-2,-19,-11,-3,-8,-24
1523147103662987,2,-4,7,3,7,0,2,2
1523147103662987,5,8,-12,-89,-42,0,0,-4
1523147103670006,-6,-9,0,84,38,-6,-6,3
1523147103670006,-11,-4,1,-19,-13,0,0,-6
1523147103686052,6,-2,-1,8,1,-1,0,-7
1523147103686052,19,6,-1,-48,-10,1,6,10
1523147103688055,-3,-2,2,37,2,-5,-5,-12
1523147103688055,-3,9,4,16,14,0,-1,-15
1523147103708611,4,-8,-3,1,-3,1,0,27
1523147103708611,-11,-3,-2,-1,-14,-2,-2,-10
1523147103710114,2,1,2,-30,-10,-1,0,7
1523147103710114,-8,-3,-4,-20,-13,-3,-2,0
1523147103723148,11,-3,3,24,24,3,-2,-6
1523147103723148,21,3,2,83,16,-4,-5,-29
1523147103729665,-26,0,3,-26,-11,-6,1,40
1523147103729665,2,0,9,-12,-9,1,-2,-19
1523147103753729,-3,-6,9,-28,-1,-3,11,29
1523147103753729,-7,19,-12,-22,-14,-6,-7,-9
1523147103755235,-13,-22,-9,-6,-6,-3,-9,-38
1523147103755235,-20,-20,-6,3,-1,-4,7,47
1523147103768771,33,69,3,14,12,5,0,-41
1523147103768771,-57,-78,1,-3,-8,1,6,-3
1523147103770274,-57,-3,-10,-7,-6,-7,-16,-68
1523147103770274,20,-10,-4,-7,-3,3,1,30
1523147103783309,26,-24,-14,12,8,-3,21,100
1523147103783309,-27,42,-1,-19,-22,-11,-24,-58
1523147103789826,13,-36,1,-10,2,5,4,-4
1523147103789826,-10,20,1,7,6,-4,-14,-46
1523147103805366,4,-15,-5,7,1,3,5,21
1523147103805366,27,20,7,-7,-4,5,12,37
1523147103813891,16,11,3,-12,-5,-1,2,32
1523147103813891,-9,6,-4,10,3,-2,0,-9
1523147103828929,-14,-3,-4,8,3,-4,-10,-24
1523147103828929,-2,-3,-6,-18,-10,0,0,-6
1523147103830434,21,17,3,4,6,2,0,-5
1523147103830434,7,-3,-1,8,2,2,11,31
1523147103842465,-26,-6,-3,0,1,-2,-16,-56
1523147103842465,3,-13,2,-3,-1,2,3,13
1523147103851491,18,6,0,0,-1,-1,2,6
1523147103851491,19,11,5,4,0,1,8,31
1523147103866027,-23,-13,-5,-46,-21,-2,-8,-22
1523147103866027,6,-5,-3,59,25,-4,-3,1
1523147103868035,12,8,-3,-4,-6,4,9,29
1523147103868035,-1,-1,-14,-93,-38,-3,-4,-22
1523147103888589,-9,-5,5,123,57,-6,-13,-23
1523147103888589,9,0,-2,-32,-16,9,11,24
1523147103890092,-10,2,-3,-52,5,3,-4,-11
1523147103890092,6,-3,4,-27,-13,5,3,-4
1523147103902123,-25,-6,-2,61,13,-1,0,-9
1523147103902123,-4,-41,-5,15,2,-6,0,12
1523147103911148,-3,2,-4,18,12,2,2,7
1523147103911148,10,1,0,-13,4,-4,-9,-36
1523147103926188,-33,-15,4,-39,-11,1,-3,3
1523147103926188,17,16,-6,-87,-51,0,17,56
1523147103927693,-27,12,10,102,70,-2,-13,-20
1523147103927693,-11,-26,-5,8,5,-3,7,44
1523147103948757,15,9,-10,-13,-27,-4,-7,-21
1523147103948757,-3,1,3,40,28,0,-6,-10
1523147103950254,12,2,2,-68,-24,4,9,10
1523147103950254,-2,8,-2,58,30,0,-2,-1
1523147103962312,-2,-3,5,-11,-11,1,0,-1
1523147103962312,5,11,-1,-70,-32,2,5,7
1523147103971317,6,-11,-3,48,10,-6,-5,-3
1523147103971317,-11,2,5,11,-1,1,-4,-14
1523147103986349,5,-6,-7,-85,-43,0,5,3
1523147103986349,12,7,6,65,51,-1,-11,-19
1523147103987855,25,6,2,-19,-34,3,6,16
1523147103987855,1,24,-4,-15,-15,2,11,17
1523147104008908,3,1,6,9,21,-2,-2,2
1523147104008908,2,9,-3,-45,-35,-1,1,-2
1523147104010415,-6,-5,3,44,13,-3,-7,-23
1523147104010415,3,-5,-1,13,8,-2,-2,2
1523147104022465,2,-2,-5,-55,-25,-1,2,0
1523147104022465,-7,2,0,28,8,0,0,-11
1523147104031469,-3,-5,-2,-4,2,0,-1,-2
1523147104031469,-5,-8,1,7,-7,-1,-6,-22
1523147104046048,1,-2,-17,-8,9,3,0,0
1523147104046048,-3,-4,2,13,-1,-2,-1,-3
1523147104048014,-1,-2,-5,-35,-19,-3,0,-2
1523147104048014,0,-1,1,7,1,-2,-3,2
1523147104068608,5,4,4,6,13,2,1,6
1523147104068608,-6,3,1,-11,-10,-1,-4,1
1523147104070575,11,-1,-4,-30,-3,-2,2,10
1523147104070575,-4,1,4,48,23,-9,-8,-8
1523147104091168,-7,-2,-1,5,-11,-2,-2,-10
1523147104091168,-65,-25,-7,-66,-24,3,9,8
1523147104092634,15,1,4,75,25,-2,-6,-3
1523147104092634,7,-12,-2,-21,5,-1,-7,-9
1523147104106176,-8,3,5,-2,-23,-5,-6,3
1523147104106176,6,-2,-7,-31,-5,-2,-4,-28
1523147104107673,2,1,-1,8,0,3,17,65
1523147104107673,-15,-1,1,14,9,-2,-3,-3
1523147104128733,13,0,-4,-40,-11,-1,-5,-19
1523147104128733,12,7,9,84,49,2,-6,5
1523147104130234,-9,-2,1,-27,-3,1,-5,-16
1523147104130234,19,1,-3,0,-3,-1,0,-2
1523147104142270,-2,2,0,0,4,2,3,3
1523147104142270,11,4,0,-54,-17,-6,-1,-4
1523147104151290,-11,-1,-2,-8,-9,-1,-1,-5
1523147104151290,-5,-2,-2,-9,13,-3,-4,0
1523147104166330,-8,-3,2,-7,-18,3,-2,-13
1523147104166330,-9,-13,-2,46,11,-1,-2,-1
1523147104167831,-11,10,4,-41,-30,-4,-6,-19
1523147104167831,5,1,-22,-109,-42,3,7,6
1523147104188892,-13,-16,5,115,67,-11,-14,-9
1523147104188892,-2,-6,-4,29,7,-6,0,13
1523147104190392,12,1,-5,-25,-15,-3,-2,-22
1523147104190392,-19,-8,4,-15,-13,3,0,-19
1523147104202571,-31,-6,-3,-33,-10,-1,5,15
1523147104202571,11,6,-4,-26,-31,-4,-3,-9
1523147104211448,-11,-10,4,93,57,-4,-11,-12
1523147104211448,11,7,6,9,-1,2,5,15
1523147104226299,10,-1,-7,-8,2,4,-5,-25
1523147104226299,15,5,0,-23,-11,1,3,17
1523147104227658,-18,-2,-7,-49,-14,-2,0,3
1523147104227658,-5,-5,-1,62,7,-5,-7,-10
1523147104248807,3,5,17,3,-5,-2,-8,-25
1523147104248807,1,0,-3,-12,-5,-4,11,76
1523147104250221,21,8,3,-16,-11,2,3,0
1523147104250221,3,33,7,17,3,-1,-7,-21
1523147104262253,45,3,-8,-15,-4,-6,8,24
1523147104262253,36,19,4,12,7,3,0,-4
1523147104271275,9,16,-2,-7,-10,0,0,-9
1523147104271275,-4,-20,6,2,5,3,-12,-84
1523147104285963,47,-23,-11,1,2,3,9,25
1523147104285963,-18,50,9,-3,2,-7,-12,-73
1523147104287932,90,-17,-11,-3,0,5,-5,-72
1523147104287932,15,22,6,3,1,1,-1,-6
1523147104308542,47,25,-1,12,11,4,11,60
1523147104308542,-71,-71,-22,-4,-7,-7,-15,-66
1523147104310492,-15,32,18,-10,-10,-9,-23,10
1523147104310492,26,-9,-4,-3,-3,-2,6,13
1523147104331048,-85,-29,-4,-3,-4,-7,-21,-94
1523147104331048,30,13,-3,3,3,1,0,14
1523147104332552,-25,-21,-11,-14,-10,-3,6,45
1523147104332552,-24,-4,-1,-3,2,0,5,22
1523147104345630,17,19,12,1,1,2,8,34
1523147104345630,4,-5,-4,4,1,2,-6,-29
1523147104352602,-17,-16,0,-4,-4,0,6,1
1523147104352602,1,-7,0,6,1,0,0,21
1523147104368695,-17,-5,3,-17,-8,0,-3,-21
1523147104368695,-2,4,5,4,-1,-1,3,18
1523147104370153,-8,-9,-6,-17,3,-1,0,6
1523147104370153,-3,-8,-4,-19,-7,-2,3,24
1523147104391251,-13,9,2,76,35,-2,-4,1
1523147104391251,8,-7,-7,-30,-31,-2,2,10
1523147104392711,-11,5,0,-63,-20,0,7,17
1523147104392711,-11,-9,2,40,47,0,-7,-16
1523147104405330,9,0,-7,-50,-26,0,2,8
1523147104405330,7,-1,8,17,28,3,0,8
1523147104412518,-17,-11,-11,-21,-40,-4,-5,-24
1523147104412518,-4,7,-7,-83,-45,-7,3,22
1523147104428544,-3,-9,5,110,55,-5,-8,-4
1523147104428544,66,8,1,-23,-9,4,4,2
1523147104430008,19,23,5,-20,-4,8,12,35
1523147104430008,6,24,1,26,17,-7,-7,-7
1523147104451061,7,-51,-6,-42,-28,4,4,5
1523147104451061,9,-7,2,15,34,-3,-7,-19
1523147104452568,-6,-7,3,-64,-34,-3,-1,1
1523147104452568,-4,-9,-13,70,-28,0,4,12
1523147104465097,-5,14,3,28,41,-6,-12,-21
1523147104465097,-31,20,-2,-15,-14,1,1,-3
1523147104473620,-8,-48,-14,-9,-7,2,5,-3
1523147104473620,-13,-14,4,58,55,-4,-7,-7
1523147104488662,-7,21,-6,-40,-43,-3,2,-3
1523147104488662,-10,-10,2,-14,3,-1,0,13
1523147104490164,-5,17,-1,-4,-7,2,4,8
1523147104490164,-1,-5,-3,21,12,-6,-7,-5
1523147104511330,5,-1,-8,-17,-2,3,4,9
1523147104511330,-4,-3,3,21,2,-1,2,19
1523147104512809,-25,-1,2,-10,5,-1,-3,-11
1523147104512809,-4,-6,-7,-18,-11,4,1,-16
1523147104524886,19,17,10,13,23,4,-4,-28
1523147104524886,7,-1,-7,-53,-30,1,19,82
1523147104533863,1,3,-2,44,22,-3,-9,-17
1523147104533863,-3,-7,0,-7,-3,-4,-3,-4
1523147104548902,-9,4,-5,-20,-9,0,2,7
1523147104548902,0,-4,-7,-5,-21,3,-4,-27
1523147104550409,-2,-14,1,55,59,-7,-11,-7
1523147104550409,0,4,6,-9,1,-1,0,15
1523147104570965,-5,2,0,-35,-30,0,3,-1
1523147104570965,22,-3,-2,0,-8,-2,-5,-15
1523147104572969,0,6,2,21,5,-1,3,20
1523147104572969,14,2,-6,-70,-35,1,3,-1
1523147104585503,-19,-5,6,82,50,-3,-4,6
1523147104585503,-5,-9,1,2,-4,-4,-11,-36
1523147104592519,-28,7,-11,-9,-14,-1,12,40
1523147104592519,2,2,3,-17,-3,1,0,20
1523147104608618,0,-1,-10,-46,-24,0,0,1
1523147104608618,-25,-5,3,95,55,-8,-13,-14
1523147104610568,7,-2,1,14,-23,3,-8,-47
1523147104610568,2,0,1,-16,-8,6,23,56
1523147104631174,1,5,-9,-100,-62,0,4,11
1523147104631174,-8,-3,7,13,40,-2,-6,-9
1523147104632630,-1,-3,-3,47,14,-4,-6,-10
1523147104632630,-2,-2,-1,-9,-4,5,-3,-21
1523147104646162,5,3,-1,-23,-18,4,5,4
1523147104646162,5,3,-3,-66,-28,-2,4,7
1523147104652233,-3,-2,0,35,14,-1,-2,-1
1523147104652233,-4,-2,-6,-24,-7,1,-3,-8
1523147104668863,-3,-3,1,-11,22,-10,-5,5
1523147104668863,3,-7,7,108,69,3,-11,-5
1523147104670319,-41,-4,-4,-34,-35,-6,0,-5
1523147104670319,25,3,1,-28,-18,-3,2,4
1523147104691375,-15,5,2,-14,-19,-1,2,5
1523147104691375,-14,-2,0,1,21,-4,-5,-12
1523147104692879,16,-1,-2,7,8,2,-7,-29
1523147104692879,-5,-3,0,16,3,-2,-5,-20
1523147104705413,3,-2,-12,-51,-35,4,14,47
1523147104705413,3,8,4,38,15,-3,-4,3
1523147104712499,5,3,5,-38,-6,-1,-2,-7
1523147104712499,4,0,-2,-44,-17,-1,-3,-10
1523147104728623,0,-1,6,31,25,1,-8,-31
1523147104728623,-8,3,-8,-86,-62,2,12,17
1523147104730134,6,-3,-2,59,20,-4,-4,13
1523147104730134,-7,5,22,33,19,-2,-2,-7
1523147104751251,-21,-15,-37,-63,-27,2,4,2
1523147104751251,-7,-5,5,55,-10,-4,-6,-17
1523147104752691,-20,-12,-6,12,25,1,3,-6
1523147104752691,-43,28,-4,-13,-12,-6,-14,-15
1523147104765726,27,-14,10,28,19,-3,-7,-28
1523147104765726,55,-47,-5,-52,-26,5,19,68
1523147104772245,18,-12,-5,-15,-2,-2,-9,-17
1523147104772245,65,12,1,23,10,1,15,51
1523147104788789,-54,9,5,15,6,-5,-14,-51
1523147104788789,-23,-5,4,-8,-5,2,-21,-111
1523147104790291,74,34,7,-3,-7,0,18,102
1523147104790291,-97,-75,-18,-10,-5,-10,-10,-65
1523147104811349,60,35,3,20,6,-3,-3,38
1523147104811349,-59,0,5,-26,-19,-13,-24,-99
1523147104812852,45,59,4,-8,2,0,-5,27
1523147104812852,-53,-36,-13,-4,2,7,15,38
1523147104824947,-20,-8,5,27,7,-11,-23,-39
1523147104824947,8,-20,-11,-18,-8,2,8,29
1523147104833908,-1,-1,-4,-23,-10,-1,1,-1
1523147104833908,43,15,10,14,5,1,9,31
1523147104848449,14,9,5,14,5,4,6,10
1523147104848449,27,12,-2,-3,0,4,5,24
1523147104850451,-22,-26,-12,-34,-32,-7,-3,-20
1523147104850451,0,11,1,34,40,-3,-9,-14
1523147104871007,-7,-13,-6,-78,-24,3,5,-9
1523147104871007,-4,10,5,77,15,-1,0,18
1523147104873014,-22,-12,-2,2,27,-1,-2,-7
1523147104873014,4,5,3,50,36,-1,-12,-27
1523147104885043,5,3,-6,-66,-39,7,5,11
1523147104885043,7,11,-1,6,1,6,15,34
1523147104893566,-17,-9,5,44,3,-4,-5,-26
1523147104893566,47,1,-13,-110,-66,5,4,-22
1523147104908609,-15,-8,13,127,105,-7,-8,21
1523147104908609,0,17,-7,-118,-47,4,8,9
1523147104910111,-12,-11,-2,-61,-25,5,4,-13
1523147104910111,7,3,5,-21,-11,0,-5,-9
1523147104931333,6,4,-3,-48,-25,2,11,19
1523147104931333,-6,6,-12,-83,-80,-4,2,-1
1523147104932767,-5,-12,20,110,122,2,-25,-50
1523147104932767,-2,0,0,-124,-74,1,13,70
1523147104944856,-9,1,-4,-86,-34,1,4,-4
1523147104944856,-3,-3,-5,3,17,-1,-1,4
1523147104953913,15,-7,-4,25,-19,-3,4,-6
1523147104953913,-13,-2,-7,-46,-17,5,-3,-33
1523147104968952,-17,2,18,127,88,-4,-9,-16
1523147104968952,-12,-19,-3,-71,-11,-2,-1,17
1523147104970514,0,3,-4,-65,-46,2,7,7
1523147104970514,-12,-12,-5,52,41,-11,-13,-17
1523147104991129,18,10,0,-13,-32,-2,3,9
1523147104991129,-11,34,-1,41,26,0,-5,-17
1523147104992573,-8,-6,-2,-1,-11,0,3,2
1523147104992573,5,19,3,4,6,-4,-6,-13
1523147105004608,3,-6,-2,-3,-19,-2,2,9
1523147105004608,-12,9,4,27,25,-1,-2,-9
1523147105013630,-25,-25,-5,20,8,-4,-2,-5
1523147105013630,7,11,-5,-34,-20,-1,3,13
1523147105028728,-6,-9,4,65,32,-2,-9,-19
1523147105028728,-4,-11,1,18,-24,-3,-9,-27
1523147105030173,10,16,-10,-96,-46,2,16,60
1523147105030173,0,-7,5,55,22,-4,-13,-30
1523147105051298,-4,-9,-6,-22,4,2,6,2
1523147105051298,8,4,-6,-84,-30,-1,4,-3
1523147105052733,37,25,5,81,66,-2,-3,0
1523147105052733,-41,-34,-11,2,-25,-12,-4,3
1523147105064824,6,-3,-6,-38,-25,-2,-3,-4
1523147105064824,-2,-5,-4,-6,4,1,7,26
1523147105073789,3,11,-1,-66,-21,-1,-3,-18
1523147105073789,6,-5,0,63,32,-2,-4,-10
1523147105088420,2,2,0,26,-2,-2,4,17
1523147105088420,10,-3,-1,-14,0,-2,1,6
1523147105090425,-15,-20,-6,-78,-31,-2,0,-7
1523147105090425,4,7,5,108,35,2,-5,-13
1523147105111038,-10,-9,-2,-28,-8,-2,1,6
1523147105111038,-8,-2,-3,20,10,-1,1,8
1523147105112984,-7,-1,-2,-18,-17,-1,-2,-5
1523147105112984,1,6,-7,-53,-8,0,4,5
1523147105125016,4,7,5,1,9,2,-4,-8
1523147105125016,8,-7,2,53,25,-4,2,34
1523147105134042,-7,2,-4,-30,-15,0,2,-7
1523147105134042,7,3,2,35,26,0,-1,-6
1523147105148630,17,-5,-4,-46,-14,1,-2,-5
1523147105148630,8,9,13,17,5,-7,-5,7
1523147105150090,-17,-9,-1,4,5,3,-2,-16
1523147105150090,12,13,2,-23,-16,2,6,18
1523147105171146,5,6,-3,-18,-11,0,2,-9
1523147105171146,-8,-9,4,59,36,-2,-10,-22
1523147105172649,2,3,0,-7,-8,2,1,0
1523147105172649,42,8,0,-3,4,0,0,4
1523147105184681,-6,3,-3,-27,-21,-1,0,4
1523147105184681,2,0,-8,-48,-17,-1,2,-3
1523147105201278,-17,-16,-6,66,36,-1,-5,-14
1523147105201278,-14,-5,-5,-57,-35,0,-1,-28
1523147105209011,-8,-7,1,62,26,-6,-5,13
1523147105209011,14,-6,-4,-2,2,0,-1,-10
1523147105210301,-45,-25,2,-1,-6,-1,2,22
1523147105210301,18,34,1,-6,2,-1,0,9
1523147105231099,0,-2,-9,-11,1,-4,5,4
1523147105231099,-18,7,30,4,3,-2,-4,3
1523147105232861,1,12,-1,-6,-12,-2,-11,-48
1523147105232861,-16,-63,-4,14,9,0,6,13
1523147105253417,35,13,4,-5,-7,1,8,34
1523147105253417,0,5,-8,-9,-5,3,-7,-46
1523147105255470,-3,-27,0,-10,-9,-4,4,46
1523147105255470,-49,7,-5,-2,-3,-4,2,8
1523147105268695,-30,-89,-8,-8,-6,-5,-8,-16
1523147105268695,15,-30,-7,-1,5,4,8,32
1523147105270463,-2,6,-5,22,11,5,-6,-16
1523147105270463,2,9,-3,2,1,-3,6,23
1523147105291516,-8,10,5,-5,-4,1,-2,-16
1523147105291516,9,15,-6,0,2,4,7,19
1523147105292521,67,-21,-8,-3,-5,-6,1,42
1523147105292521,-87,12,3,-6,-4,-3,-28,-112
1523147105313816,16,1,0,-1,4,4,2,3
1523147105313816,18,3,-6,2,2,-1,3,17
1523147105315580,40,27,3,2,-2,1,4,4
1523147105315580,40,-8,1,3,5,3,7,28
1523147105328616,-16,29,-3,-7,-4,-3,-4,-3
1523147105328616,-36,-62,-10,4,0,-2,-4,-14
1523147105330121,12,19,8,1,-1,3,7,2
1523147105330121,8,8,4,-3,-4,-1,4,17
1523147105351380,-22,-9,-7,-1,-4,-2,-10,-33
1523147105351380,16,18,-4,-9,-18,-4,4,28
1523147105352680,-22,3,0,-23,-1,-7,-9,-26
1523147105352680,12,-10,2,1,15,3,-1,10
1523147105373863,29,13,-8,6,-14,-4,-2,-2
1523147105373863,-8,4,5,69,51,0,-4,-16
1523147105375241,-14,4,-4,-81,-37,0,2,-7
1523147105375241,3,1,-4,17,-37,-9,-8,-11
1523147105387274,0,-3,12,104,74,2,-4,-1
1523147105387274,0,14,-13,-104,-50,5,8,0
1523147105396510,-22,-6,21,116,78,-10,-15,-17
1523147105396510,26,1,-8,-61,-39,0,9,28
1523147105411154,-39,-1,-10,-85,-16,2,2,-2
1523147105411154,2,-10,1,76,7,-11,-25,-75
1523147105412557,22,14,-6,-46,-30,6,23,74
1523147105412557,12,-21,-1,-87,-18,7,2,-4
1523147105433714,5,23,9,49,36,-5,-9,-2
1523147105433714,-10,-7,-8,27,30,2,-2,11
1523147105435116,-9,-5,-7,-12,-14,1,-4,-19
1523147105435116,15,1,-3,-16,-21,-8,-1,9
1523147105447250,1,1,4,-46,-10,3,4,-8
1523147105447250,-7,-17,-3,6,9,-4,-1,8
1523147105456172,4,14,-5,-8,-30,-1,-3,-11
1523147105456172,-23,-52,4,83,82,3,-1,8
1523147105478832,-7,-13,-10,-27,-45,-7,-7,-16
1523147105478832,-7,12,2,30,-9,-3,1,5
1523147105480237,-1,-7,-4,-21,-5,-2,-4,-10
1523147105480237,-3,13,-5,-54,-25,1,-2,-20
1523147105493773,8,0,-3,-4,-9,0,3,4
1523147105493773,21,-6,8,16,17,2,1,18
1523147105495277,-17,2,-5,-36,-13,-2,-3,-18
1523147105495277,5,11,2,59,18,-6,-8,-2
1523147105507310,17,7,-3,-70,-31,5,8,14
1523147105507310,-2,1,0,27,-11,0,-5,-12
1523147105516333,5,-7,-2,12,12,1,2,-9
1523147105516333,-8,11,1,12,2,-3,-5,-10
1523147105531405,-9,-5,-2,10,4,1,1,-20
1523147105531405,-5,4,-6,-72,-21,0,6,8
1523147105532877,-8,0,0,22,-6,-4,-5,-5
1523147105532877,-4,5,3,66,33,-4,-4,-5
1523147105553432,-11,-2,2,-8,-20,-3,-5,-4
1523147105553432,3,9,-1,-73,-31,1,7,7
1523147105555436,-4,-9,2,97,62,3,-5,-3
1523147105555436,13,8,-1,-32,-28,-2,2,-5
1523147105568077,27,5,3,9,9,-1,-4,-7
1523147105568077,-10,8,1,-43,-13,1,7,17
1523147105575053,-1,-1,1,6,-20,-4,1,3
1523147105575053,-8,1,4,15,31,2,-15,-63
1523147105591130,1,0,2,18,5,1,19,75
1523147105591130,0,-1,-8,-23,-11,-4,-4,-13
1523147105593036,-1,2,-4,-68,-14,5,2,-10
1523147105593036,0,-1,4,59,18,-4,-5,-1
1523147105613700,-1,-5,1,64,26,-5,-4,5
1523147105613700,-4,5,0,-2,3,-1,-3,-6
1523147105615095,5,-3,-3,-11,1,-3,0,9
1523147105615095,2,3,-6,-35,-38,-5,2,18
1523147105628204,-9,-6,-9,-87,-32,2,-2,-19
1523147105628204,-11,-7,6,99,64,-6,-7,18
1523147105634748,1,1,2,44,23,3,0,-15
1523147105634748,5,4,0,-27,2,5,9,20
1523147105651295,2,3,-10,-80,-46,1,3,-9
1523147105651295,-10,-7,8,96,52,-10,-16,-33
1523147105652695,5,-4,-4,-33,-23,-3,-7,-11
1523147105652695,-15,-6,-6,-14,-7,0,15,54
1523147105673853,6,-3,-2,-4,10,-1,-6,-11
1523147105673853,5,5,-4,-73,-51,2,5,-6
1523147105675255,-13,-8,-3,42,20,-7,-18,-33
1523147105675255,8,3,3,7,19,3,6,12
1523147105687790,4,2,-1,-16,-12,-3,-3,-7
1523147105687790,-1,0,-4,36,16,3,0,2
1523147105694915,41,7,1,-22,-15,1,1,-13
1523147105694915,-11,16,-6,-33,-19,-2,-4,-5
1523147105711380,-6,-4,3,52,21,-3,-3,-2
1523147105711380,5,4,2,-1,-9,1,-1,-15
1523147105712856,27,23,4,-2,-7,2,6,25
1523147105712856,2,-32,-6,-5,3,1,4,22
1523147105733942,-11,4,13,21,14,5,1,-19
1523147105733942,16,-14,-10,-53,-30,-10,10,35
1523147105735416,-10,-20,-6,2,0,-1,-8,-35
1523147105735416,-13,-14,-5,0,1,-3,-4,-12
1523147105756072,75,47,2,4,-4,-2,1,42
1523147105756072,-18,-28,4,-15,-6,1,0,0
1523147105757975,31,-9,-7,1,4,1,2,-48
1523147105757975,-27,-56,-4,-3,-2,5,-2,-42
1523147105771111,-24,19,-10,8,-3,-7,-17,-50
1523147105771111,-2,-2,6,-3,4,1,8,36
1523147105772514,-29,-9,8,-7,-4,-3,5,21
1523147105772514,6,11,-1,-19,-12,-7,-26,-70
1523147105793817,26,-31,8,26,16,8,26,42
1523147105793817,11,29,-7,-18,-9,-9,-24,-95
1523147105795223,-15,-34,-8,-8,-5,-3,2,35
1523147105795223,58,15,4,0,-3,3,12,44
1523147105807360,-48,-41,-14,2,1,-1,-9,-21
1523147105807360,1,1,1,-15,-7,-1,6,38
1523147105816277,10,25,3,-3,-3,1,1,9
1523147105816277,24,17,5,9,4,2,3,22
1523147105831363,-6,0,-8,3,1,-4,-3,-2
1523147105831363,5,-2,-4,-9,-2,1,-11,-52
1523147105832822,-32,20,1,-9,-7,-5,7,26
1523147105832822,-3,20,0,4,-3,-4,-2,0
1523147105853377,-25,-55,2,-4,-4,-4,-6,-5
1523147105853377,-17,-1,-3,-1,-2,2,-1,-14
1523147105855385,0,-15,-8,-10,1,-1,-4,2
1523147105855385,-28,3,2,-20,-9,-2,5,15
1523147105867518,7,18,1,-1,-3,2,-3,-18
1523147105867518,-10,-8,1,30,27,-4,-5,15
1523147105876438,-2,-10,1,0,1,0,2,8
1523147105876438,31,24,-9,-68,-30,6,7,6
1523147105891088,-17,10,-4,2,11,0,-3,-5
1523147105891088,-1,-7,5,63,22,-4,-2,8
1523147105892982,-8,6,0,-49,-31,0,3,10
1523147105892982,-37,-12,-2,86,4,-5,-6,-21
1523147105913538,7,-26,2,17,27,-6,-6,4
1523147105913538,2,18,-6,-59,-33,4,9,4
1523147105915044,-24,11,4,-10,3,1,-7,-11
1523147105915044,19,-10,-3,16,-3,-8,-8,10
1523147105927132,-4,12,0,0,-9,-3,1,-20
1523147105927132,-39,-7,-5,-84,-29,3,4,15
1523147105936158,6,9,-2,88,38,0,-13,-46
1523147105936158,-8,6,2,-1,3,4,15,43
1523147105951196,-16,4,-2,-48,-29,-1,-2,6
1523147105951196,14,-5,6,19,9,-4,-8,-1
1523147105952700,11,22,10,-26,-17,-6,-4,-11
1523147105952700,-9,-3,16,-26,34,-7,-15,-18
1523147105974000,6,4,-8,-15,-10,6,9,7
1523147105974000,10,11,3,4,-9,4,4,2
1523147105975263,2,-12,-7,-14,-9,1,7,24
1523147105975263,-2,-1,-4,0,-8,-3,-5,-11
1523147105987292,-10,-2,4,54,3,-7,-6,5
1523147105987292,36,7,-2,-11,13,-1,-3,0
1523147105996316,-13,-6,3,13,6,-2,0,4
1523147105996316,2,1,3,-43,-18,-1,1,-6
1523147106011410,5,25,10,-71,-21,-4,-2,-2
1523147106011410,10,2,6,85,23,1,-6,-25
1523147106012860,-24,-42,-12,14,10,-11,-8,8
1523147106012860,0,10,-5,-17,-1,3,7,3
1523147106034035,5,3,1,7,-13,-3,-3,1
1523147106034035,-3,-25,-1,12,2,-3,-7,-17
1523147106035646,19,6,1,-30,-1,-1,5,24
1523147106035646,-7,1,-3,9,-14,2,0,5
1523147106055473,-1,-2,-3,-13,6,4,7,18
1523147106055473,-2,5,-5,5,11,2,1,1
1523147106056509,1,-2,-3,3,-9,-2,-5,-14
1523147106056509,-1,-2,-4,1,-6,-4,-4,-2
1523147106070514,7,0,-2,-16,18,4,3,-2
1523147106070514,0,1,-3,26,-5,1,4,2
1523147106071015,-18,3,7,49,4,1,7,20
1523147106071015,0,-8,-4,1,4,-2,-6,-4
1523147106093101,-1,-4,-6,-47,-28,-4,-4,-6
1523147106093101,-6,1,-2,-5,9,1,5,9
1523147106093575,2,-3,-4,14,6,-1,-11,-21
1523147106093575,17,4,3,10,7,6,5,4
1523147106115246,-22,-3,-8,-58,-19,-6,-2,5
1523147106115246,1,2,2,59,2,-1,-5,5
1523147106116249,0,0,-1,-4,4,2,0,-1
1523147106116249,15,4,3,4,4,5,-2,-27
1523147106130786,33,28,-1,-4,-7,4,1,-17
1523147106130786,-6,3,18,-13,27,-2,-3,13
1523147106131291,10,6,-9,-112,-49,0,4,0
1523147106131291,-4,-10,7,125,84,-6,-19,-47
1523147106152846,-19,-10,0,-1,-1,0,5,19
1523147106152846,-10,10,-5,-76,-34,0,4,1
1523147106153850,32,-7,4,56,41,2,0,-1
1523147106153850,10,8,-10,-88,-40,-3,2,4
1523147106175869,6,-11,11,103,31,-4,-17,-46
1523147106175869,-7,7,-3,-9,-4,-3,6,33
1523147106176196,-14,-7,-11,-98,-41,2,5,4
1523147106176196,-20,-16,1,90,56,-4,-3,2
1523147106190520,-5,-4,0,5,3,-3,-11,-28
1523147106190520,13,-6,-7,-14,-12,2,12,49
1523147106191028,11,7,2,17,7,-3,-3,-4
1523147106191028,4,0,0,-27,-15,-2,3,9
1523147106213323,-18,-2,5,34,9,0,2,4
1523147106213323,3,-7,-10,-35,-31,-3,-15,-51
1523147106213582,-38,-13,-8,3,4,3,9,54
1523147106213582,-8,-5,-9,-5,-13,0,3,21
1523147106235680,4,0,0,-44,-20,2,4,9
1523147106235680,1,-5,-7,-19,4,-4,-6,-17
1523147106236144,-1,-1,9,127,64,-1,-10,-24
1523147106236144,-22,-8,-5,-29,-17,-1,3,16
1523147106250424,17,38,9,-37,-23,0,5,14
1523147106250424,-7,-65,-7,-101,-48,-9,0,7
1523147106251683,2,10,-1,66,46,-1,-7,-18
1523147106251683,-11,13,6,48,1,1,0,-3
1523147106272743,-33,-28,6,-1,11,-1,6,24
1523147106272743,33,14,2,5,-1,1,0,13
1523147106273744,-24,36,-5,-29,-21,-5,-12,-16
1523147106273744,45,-19,-3,-45,-21,-3,-7,-24
1523147106295834,13,-1,5,39,19,2,8,7
1523147106295834,-14,57,13,16,0,-7,-3,-7
1523147106296303,-51,-9,2,-37,-27,-3,-14,-51
1523147106296303,103,41,4,2,5,4,20,56
1523147106310417,0,-63,-19,4,-2,-7,-10,15
1523147106310417,-38,-58,-21,16,10,-2,16,81
1523147106311342,73,-4,15,-19,-7,3,2,-31
1523147106311342,-42,33,-4,-23,-16,-8,-7,10
1523147106333144,38,8,-7,21,12,1,-1,3
1523147106333144,5,27,13,1,5,6,7,-8
1523147106334125,15,-14,-4,-10,-13,-2,2,15
1523147106334125,-18,-29,-7,-4,1,3,3,2
1523147106355702,-10,16,-12,9,5,2,5,-8
1523147106355702,-31,-35,-20,13,4,-4,-19,-49
1523147106356556,-1,21,-1,-16,-11,-1,9,21
1523147106356556,-18,28,-4,-17,-4,-3,-5,-20
1523147106370704,-7,7,12,15,9,-6,-9,-19
1523147106370704,6,20,-18,-6,1,4,0,-17
1523147106371002,-4,-36,0,-15,-12,-2,6,16
1523147106371002,-25,-10,15,-1,4,-2,-8,-18
1523147106393304,-9,-30,-13,-2,-26,-5,-3,3
1523147106393304,1,-9,2,-1,41,0,-1,-7
1523147106393561,-7,-1,-6,35,-20,-2,0,-2
1523147106393561,-7,-2,6,-55,-34,5,4,-9
1523147106415619,-4,8,-2,93,48,-3,-5,-8
1523147106415619,9,43,34,22,-19,0,-3,-10
1523147106416122,3,0,-24,-68,-1,3,1,0
1523147106416122,-16,-1,-13,-64,-41,5,8,-4
1523147106438705,-11,-2,8,53,25,-10,-1,-9
1523147106438705,0,5,2,42,-39,9,-5,-25
1523147106439207,14,10,9,-29,25,1,5,30
1523147106439207,-21,6,-14,-61,-41,1,16,66
1523147106452741,22,12,-5,-62,-2,-3,-7,-22
1523147106452741,24,-20,2,16,37,-7,-3,13
1523147106453745,0,-9,-2,8,-60,3,1,-27
1523147106453745,-5,-16,2,63,107,2,-12,-21
1523147106475542,-21,32,1,26,-8,-2,-6,-13
1523147106475542,-24,-21,-12,-55,-63,-11,-5,-23
1523147106476548,-1,10,-3,-76,-26,-1,6,14
1523147106476548,4,-32,3,113,45,-11,-7,-10
1523147106499010,-1,-6,-8,-13,-29,5,-2,-13
1523147106499010,-2,-3,4,27,12,2,-1,-6
1523147106499365,-12,25,2,41,48,-4,-4,6
1523147106499365,-2,-5,8,-9,-29,2,-5,-21
1523147106513403,9,3,-6,-128,-65,1,8,17
1523147106513403,-9,4,-8,106,68,-2,-6,-1
1523147106514404,-7,-51,-3,1,15,-1,1,14
1523147106514404,-10,-50,-9,-43,-10,0,-4,-13
1523147106535460,42,1,4,-11,29,5,11,45
1523147106535460,3,2,3,-59,-89,-11,-2,-15
1523147106536464,11,4,-14,12,6,-4,-6,-18
1523147106536464,10,-8,6,30,15,1,-3,-4
1523147106550714,-1,-10,-8,-37,-22,3,2,8
1523147106550714,18,7,4,-11,14,4,1,-19
1523147106551560,0,8,9,35,18,-8,0,19
1523147106551560,-4,8,-5,58,8,-4,-9,-36
1523147106573297,-48,-5,-4,34,1,-3,-7,-17
1523147106573297,18,18,-1,-53,-5,1,5,23
1523147106573562,-13,-1,7,3,-4,0,-3,-10
1523147106573562,6,4,0,-52,-28,-3,0,6
1523147106595606,-10,-11,1,53,13,0,-6,-16
1523147106595606,-7,-2,0,18,24,1,3,5
1523147106596401,-1,-6,-12,-42,-31,3,2,0
1523147106596401,5,16,0,-17,-13,-10,-6,-6
1523147106610439,-3,0,-1,38,29,-4,-6,2
1523147106610439,-12,-4,-2,-34,-7,3,-6,-43
1523147106611442,36,34,8,8,-2,4,15,69
1523147106611442,-6,-48,-4,-32,-11,-3,-5,-3
1523147106632770,7,57,4,-7,-5,0,4,-11
1523147106632770,4,-23,-5,-5,-2,5,-1,-3
1523147106633773,-58,-13,2,-2,5,-10,-4,-11
1523147106633773,7,23,-2,-9,0,4,-1,-9
1523147106655329,6,1,9,9,15,3,2,5
1523147106655329,-13,3,13,85,29,-4,-6,0
1523147106656334,18,-16,3,-20,-21,-1,-2,-8
1523147106656334,-24,-1,0,0,-10,-1,-4,-5
1523147106670371,-1,-25,-7,-37,-16,-5,-4,-5
1523147106670371,4,13,-7,-34,2,-1,1,5
1523147106671373,-10,-4,4,30,-10,-2,-4,-15
1523147106671373,-1,13,1,32,33,-1,-1,-5
1523147106692716,17,-2,9,-21,-25,-2,1,2
1523147106692716,-9,-4,-4,2,13,-1,-3,9
1523147106693719,-3,-4,-11,-46,-14,0,-5,-14
1523147106693719,-7,7,-4,0,-4,5,9,16
1523147106715517,-16,-17,7,61,30,-2,-12,-30
1523147106715517,7,10,1,-41,-4,-2,18,56
1523147106716278,63,18,-3,7,2,-3,-5,-19
1523147106716278,9,30,-12,-19,-21,5,6,19
1523147106730323,61,-18,-13,-5,10,5,3,15
1523147106730323,10,60,20,3,-2,0,-4,-13
1523147106731326,-44,-6,6,-16,-1,1,4,-1
1523147106731326,-69,-15,1,17,5,-8,-7,3
1523147106752879,-10,15,-23,-7,0,1,0,7
1523147106752879,10,-38,-2,-5,2,9,10,-13
1523147106753882,57,-32,-26,-15,-7,-6,3,51
1523147106753882,33,27,16,15,-1,-9,1,25
1523147106775438,-59,-53,-10,-1,2,-2,-22,-83
1523147106775438,37,-89,-9,-26,-28,-12,28,73
1523147106776440,-53,-8,11,8,14,5,-5,-60
1523147106776440,-12,-32,6,-10,-6,-5,-14,-57
1523147106789635,60,-29,-58,11,8,16,24,48
1523147106789635,2,-18,20,-10,-3,-9,-13,-16
1523147106798159,15,9,45,8,4,-2,1,29
1523147106798159,-18,59,10,-10,-7,-3,-1,-5
1523147106813140,-8,19,-40,1,-1,-2,0,-13
1523147106813140,12,-17,-20,6,6,3,0,39
1523147106813640,-15,12,10,14,4,-1,2,13
1523147106813640,16,33,12,-16,-9,-1,-12,-36
1523147106835699,-1,20,40,-20,-5,-4,0,2
1523147106835699,-25,4,-11,7,2,-1,-6,-3
1523147106836201,-21,-21,-8,15,-3,-4,-15,-70
1523147106836201,38,-38,-15,3,5,1,9,25
1523147106849784,-2,-1,12,-8,-4,-2,-1,11
1523147106849784,-23,7,6,-4,0,-1,-5,-14
1523147106865337,-4,11,-20,7,-1,1,-4,-12
1523147106865337,15,-18,-9,2,5,1,2,2
1523147106872858,36,12,13,-23,-12,-6,2,17
1523147106872858,-57,-14,-1,-67,-19,-1,-11,-41
1523147106873802,-3,-1,1,106,57,2,-2,6
1523147106873802,2,-19,-4,-16,-21,3,-1,2
1523147106895483,-5,8,10,-9,-6,2,5,10
1523147106895483,-2,10,-12,51,-1,-12,-16,-22
1523147106896429,15,-7,-11,-61,-6,10,10,21
1523147106896429,6,-5,-14,-49,-30,-4,1,8
1523147106909962,-24,13,24,32,34,-1,-3,-14
1523147106909962,35,16,0,29,-9,-5,-13,-48
1523147106918044,-13,3,-7,-18,-10,-1,4,11
1523147106918044,1,-38,2,-57,-21,2,1,6
1523147106933025,-8,-2,28,13,-14,-4,-2,6
1523147106933025,0,5,-51,13,25,3,4,-12
1523147106933526,-14,15,-17,-94,-56,5,2,4
1523147106933526,-4,5,13,110,100,-9,-9,-8
1523147106955644,-20,-58,-5,-98,-46,-3,-4,-18
1523147106955644,-6,-10,13,10,9,6,6,14
1523147106956085,-7,-20,-10,-75,-41,-9,-7,-16
1523147106956085,-3,16,0,60,51,0,-1,7
1523147106969622,-14,7,-3,8,11,-6,-4,-2
1523147106969622,-6,23,5,19,-5,2,0,2
1523147106978176,9,-10,11,61,28,-1,-4,-2
1523147106978176,-24,-8,-8,-38,-46,1,0,-11
1523147106993186,1,41,2,-33,-16,-3,0,23
1523147106993186,17,3,1,10,33,0,-2,4
1523147106993685,3,11,4,2,-1,-5,-4,-5
1523147106993685,7,-6,-4,28,0,5,7,8
1523147107015301,27,4,2,-54,-16,-3,-3,-1
1523147107015301,-1,17,-5,-20,-14,1,4,8
1523147107016245,0,-2,4,47,13,-1,-2,-6
1523147107016245,-13,-8,6,-13,-11,-5,2,7
1523147107029783,-4,-23,-35,-64,-23,5,6,3
1523147107029783,-2,6,18,33,8,-2,-4,-5
1523147107037984,6,-4,2,48,26,-4,-4,-2
1523147107037984,28,10,-11,-74,-31,5,4,-2
1523147107052977,-11,7,11,31,9,-3,-2,-4
1523147107052977,-10,-5,6,-32,-22,-3,-6,-2
1523147107053978,10,11,-1,-30,-11,1,-4,-16
1523147107053978,6,6,3,24,10,-2,0,25
1523147107075532,-51,-14,-7,41,-7,-12,-11,-22
1523147107075532,-8,49,15,-40,-3,3,6,8
1523147107076033,5,1,3,-27,-11,-1,5,20
1523147107076033,-5,-2,-2,22,1,-1,-8,-23
1523147107089569,9,-3,7,35,41,1,-3,-5
1523147107089569,31,37,-2,39,11,1,2,10
1523147107098091,5,20,-5,-25,-27,-1,1,0
1523147107098091,1,2,-3,-8,7,-2,-1,-7
1523147107113633,5,15,6,11,0,-3,-1,-1
1523147107113633,2,-10,4,-26,-1,-1,0,-3
1523147107114135,0,3,-13,-6,8,-1,0,5
1523147107114135,0,-7,2,18,-7,-2,-3,-5
1523147107143752,8,5,2,-10,1,1,1,8
1523147107143752,-5,-14,-2,-28,-8,1,1,-1
1523147107144215,-5,-12,5,31,14,-3,-1,-3
1523147107144215,-4,5,-1,-15,-7,1,1,-1
1523147107158753,-3,-9,-6,0,2,-2,-1,0
1523147107158753,-10,-14,5,1,-2,-3,-8,-27
1523147107159256,3,-1,0,-32,-11,-3,-5,-11
1523147107159256,-31,-16,-3,33,14,-1,-3,-10
1523147107172790,8,0,-15,16,0,0,2,3
1523147107172790,3,-13,-13,-14,-6,-1,-1,2
1523147107173796,-2,-6,9,14,3,1,-7,-24
1523147107173796,22,8,16,-63,-21,-1,9,26
1523147107195750,8,4,2,55,-1,-5,-4,-1
1523147107195750,-11,-23,-14,-1,10,1,-2,-11
1523147107196145,-2,-3,3,-10,3,-2,1,4
1523147107196145,2,-2,-5,-16,-8,2,3,1
1523147107218469,-1,-4,4,17,12,1,1,-2
1523147107218469,-11,-18,11,6,-5,-4,-5,-21
1523147107219477,16,42,10,16,9,4,8,56
1523147107219477,-26,-3,-1,-4,-4,3,13,37
1523147107233259,-16,9,1,-11,-7,0,-2,-2
1523147107233259,-3,-3,-9,-49,-31,-1,5,32
1523147107233510,12,-17,-1,50,41,2,-6,-29
1523147107233510,22,8,1,9,2,-4,-7,-23
1523147107255569,2,-33,6,-21,-6,2,10,25
1523147107255569,-31,-5,-2,-18,-7,-4,-6,-15
1523147107256572,20,-24,-28,5,1,7,0,-42
1523147107256572,99,34,-2,-3,-1,-5,9,63
1523147107278630,-61,15,17,-7,-3,-5,-3,-14
1523147107278630,-9,-17,-25,11,6,2,-11,-36
1523147107279779,-57,-24,-3,-9,-3,1,4,-13
1523147107279779,-20,3,21,10,2,-4,-17,-61
1523147107293330,42,55,-9,-3,-5,-2,-20,-71
1523147107293330,-11,17,22,-3,-3,-2,28,86
1523147107293669,-41,-37,-5,-6,-2,-2,-7,-63
1523147107293669,4,-10,-20,0,0,4,11,2
1523147107315490,-46,-9,-5,-8,-5,-4,-18,-53
1523147107315490,24,9,13,13,9,2,-12,-56
1523147107316601,28,4,12,-8,-4,0,9,69
1523147107316601,-3,-23,-9,-7,-6,-1,-6,-17
1523147107338798,31,4,5,-2,-2,-3,6,32
1523147107338798,-5,-41,9,-1,-2,-1,-1,41
1523147107339860,-27,9,7,-9,-13,-7,0,11
1523147107339860,-17,8,0,3,0,0,-4,-11
1523147107353310,16,-10,-2,-18,2,6,5,23
1523147107353310,-6,8,-8,1,3,-5,-3,0
1523147107353700,11,18,-4,-21,-16,-2,-6,-1
1523147107353700,-19,-14,-4,-13,0,-5,-5,-2
1523147107375760,-14,-13,3,104,15,-7,-5,-12
1523147107375760,85,23,10,-82,-38,16,17,12
1523147107376261,-13,0,-25,67,47,-7,-12,-10
1523147107376261,-5,10,-6,-30,-10,-1,-3,-11
1523147107398820,-13,-17,-1,-10,-14,-1,3,10
1523147107398820,11,15,-2,-19,-30,-3,-7,-23
1523147107399322,16,1,-2,-44,-40,0,2,10
1523147107399322,-41,-18,1,17,30,1,-3,-7
1523147107413097,19,0,-5,-47,-19,1,5,11
1523147107413097,-11,5,-10,47,40,1,-10,-43
1523147107413860,-34,0,13,62,43,-9,14,79
1523147107413860,-10,-4,-10,-41,-17,0,-5,-11
1523147107435418,23,13,-9,-111,-89,6,11,6
1523147107435418,-28,0,7,77,88,-12,-24,-36
1523147107436421,8,-1,-4,-103,-33,-2,10,47
1523147107436421,-10,22,3,-72,-30,6,6,-1
1523147107458480,1,-8,-8,31,10,-4,0,16
1523147107458480,1,11,9,3,12,-1,0,6
1523147107459483,16,-16,0,33,18,-1,-8,-37
1523147107459483,-19,-29,-6,28,4,-6,-5,2
1523147107473263,18,4,-11,-77,-49,3,6,2
1523147107473263,-13,-15,2,49,19,-4,-1,5
1523147107473520,1,-1,-3,-27,-7,3,-4,-26
1523147107473520,-12,18,5,70,15,0,-1,-2
1523147107495806,-13,-38,1,-7,20,2,-2,-1
1523147107495806,-10,-15,-5,50,7,-3,-1,12
1523147107496080,5,0,-5,-29,-26,-3,-15,-57
1523147107496080,32,11,-9,-14,-11,-2,-1,1
1523147107518639,-3,4,5,-25,1,-5,3,23
1523147107518639,-4,2,-11,26,6,2,5,16
1523147107519642,15,-3,-2,-33,-28,3,-5,-30
1523147107519642,-61,-10,-4,26,15,-1,-5,-12
1523147107533357,10,2,3,46,24,-5,-5,4
1523147107533357,10,3,-7,-94,-58,3,5,7
1523147107533679,26,21,5,-2,17,1,3,5
1523147107533679,19,25,3,1,-4,1,0,2
1523147107555237,4,-24,6,33,34,-1,3,6
1523147107555237,-18,-1,-12,-84,-42,3,7,6
1523147107556241,-14,-10,0,115,50,-9,-14,-11
1523147107556241,23,8,1,-45,-11,-2,4,14
1523147107579032,-23,-5,-3,-7,0,-2,-6,-19
1523147107579032,22,6,-8,-37,-30,1,5,25
1523147107579538,-8,-3,-1,-1,9,1,3,4
1523147107579538,-1,-19,6,17,6,-1,-13,-36
1523147107593073,-1,26,8,11,14,-2,-2,11
1523147107593073,-23,-9,-11,-74,-27,1,8,2
1523147107594082,-16,4,18,72,12,-8,-9,3
1523147107594082,11,-3,-2,-22,2,1,-11,-61
1523147107615674,-28,-8,2,-36,-5,4,7,21
1523147107615674,0,5,-5,0,-1,-4,-4,-3
1523147107616420,-10,1,-3,-60,-33,1,1,-2
1523147107616420,12,-8,-1,10,-3,0,2,-3
1523147107638718,-9,-2,6,90,36,-1,-6,-16
1523147107638718,5,3,1,-25,-19,-5,0,5
1523147107639482,1,1,0,0,3,2,3,11
1523147107639482,7,-8,-7,-31,-18,-1,4,22
1523147107653018,-5,12,-5,-44,-5,4,4,-3
1523147107653018,4,-15,3,77,17,-6,-15,-52
1523147107654146,-22,-69,-21,-43,-25,-8,16,87
1523147107654146,3,15,-2,-7,0,-2,1,16
1523147107675638,18,-11,-5,-15,-1,1,-2,-20
1523147107675638,-5,-4,-8,-77,-34,-2,-2,-15
1523147107676642,4,23,2,86,32,-2,-13,-38
1523147107676642,1,-26,12,54,37,0,1,18
1523147107699229,-7,-8,1,-3,-6,-4,-1,4
1523147107699229,11,5,-5,-8,-1,1,1,6
1523147107699703,-4,27,5,-54,-23,2,3,-7
1523147107699703,22,-19,-11,1,1,0,7,50
1523147107712980,-17,24,5,10,7,1,-1,-12
1523147107712980,57,49,1,26,12,-2,4,13
1523147107713741,-8,-27,-1,-27,-9,4,-4,-26
1523147107713741,9,17,3,14,1,-1,4,16
1523147107735299,-19,-14,-5,-10,-4,-5,-15,-57
1523147107735299,-1,20,12,10,5,-2,3,29
1523147107736534,39,24,-21,-6,-1,2,4,-18
1523147107736534,-58,-17,-1,-15,-9,1,-3,-22
1523147107759041,-47,-1,10,3,7,6,4,-5
1523147107759041,34,-41,-3,4,2,-10,-17,-12
1523147107759362,-11,-8,-3,-22,-14,-5,-22,-71
1523147107759362,45,-19,-5,-4,-4,-2,8,50
1523147107781197,2,22,-7,-3,-1,-1,9,20
1523147107781197,-22,-87,-13,16,8,0,-3,-34
1523147107781955,-2,17,12,-12,-2,5,-1,0
1523147107781955,18,2,-11,-7,-10,-6,-1,-26
1523147107795736,38,-14,7,-1,2,-3,-2,24
1523147107795736,9,37,8,9,7,2,15,44
1523147107795993,15,-13,-10,-18,-13,-6,-3,-1
1523147107795993,-11,21,-1,10,4,2,10,33
1523147107818553,1,-14,19,-19,-8,-7,-15,-35
1523147107818553,-21,20,2,10,8,2,-6,-32
1523147107819556,-11,-10,3,-7,-6,-1,11,44
1523147107819556,-2,41,-1,-1,-2,-2,-8,-11
1523147107832333,39,2,-2,-2,-1,0,2,11
1523147107832333,-22,-20,-5,5,1,4,2,16
1523147107840611,5,0,-11,-9,-1,3,7,19
1523147107840611,-4,-4,9,1,-3,0,-5,-18
1523147107855394,-2,-8,-17,-66,-25,-2,2,2
1523147107855394,-18,2,3,72,45,-6,-4,-13
1523147107856153,31,43,6,-97,-35,6,6,5
1523147107856153,-14,-8,9,101,42,-4,-7,-29
1523147107878713,45,9,-16,-12,-12,-1,0,2
1523147107878713,-2,3,-10,-96,-88,7,12,22
1523147107879755,-15,-7,31,104,101,-12,-18,-20
1523147107879755,-4,-11,-6,-128,-32,-1,1,22
1523147107892489,-3,9,-1,-63,-26,4,9,22
1523147107892489,5,12,5,-31,3,2,0,-1
1523147107900389,-6,2,-5,-30,-7,11,7,-2
1523147107900389,7,6,0,-41,-7,2,0,-28
1523147107915310,-45,-55,-10,84,20,-4,-3,1
1523147107915310,-3,16,7,16,-28,-7,-1,4
1523147107916313,3,0,6,63,45,5,3,9
1523147107916313,-29,-12,-5,-19,-1,7,-6,-44
1523147107938659,-1,11,0,-36,-22,-1,8,37
1523147107938659,-30,3,11,65,29,-10,-16,-34
1523147107939663,21,-20,-19,-63,-23,-4,6,39
1523147107939663,18,23,-12,-23,-70,0,1,-3
1523147107952196,-16,-5,7,68,103,-6,-17,-28
1523147107952196,-10,-4,-4,-45,-14,1,1,1
1523147107960224,-6,8,7,-1,-16,-1,-1,-3
1523147107960224,1,0,-7,-48,-29,0,2,9
1523147107976002,24,12,-9,-17,-26,-4,-5,-7
1523147107976002,-9,-12,4,56,39,-4,-13,-17
1523147107976761,10,5,-4,-30,-27,2,3,6
1523147107976761,7,3,3,-39,-3,-5,0,9
1523147107998819,-5,9,15,121,41,-1,-3,-2
1523147107998819,7,3,-5,-108,-15,5,3,-2
1523147107999822,-12,-4,3,66,2,-4,-5,-13
1523147107999822,13,-12,-9,60,30,-4,-2,5
1523147108012387,-19,22,-2,-32,-8,0,-3,-12
1523147108012387,6,-41,-6,-48,-15,4,6,15
1523147108020379,-13,-1,-6,-56,-34,-6,-2,-4
1523147108020379,-16,-16,7,56,28,-4,-5,-1
1523147108035417,29,10,4,25,21,4,-11,-50
1523147108035417,3,36,-15,-20,-7,1,22,86
1523147108036420,13,19,2,-19,-16,-1,-4,-15
1523147108036420,0,-8,0,7,5,2,-2,-8
1523147108058539,7,-6,-5,-45,-23,1,1,4
1523147108058539,-14,12,5,96,33,-1,-5,-26
1523147108059484,-48,4,-7,4,-1,-11,2,44
1523147108059484,-1,12,3,-22,-10,0,3,18
1523147108081100,10,3,-4,-20,-15,0,3,13
1523147108081100,-6,-6,-7,-40,-26,-6,-3,-16
1523147108082042,0,-12,1,-39,15,0,-6,-4
1523147108082042,-9,-27,-1,94,34,0,-1,-8
1523147108095675,-11,5,-4,-71,-38,2,7,14
1523147108095675,16,-6,7,58,23,-3,-8,-16
1523147108096174,13,-5,1,-3,-5,0,-7,-19
1523147108096174,-24,-4,1,-53,-21,-2,4,8
1523147108118734,12,-3,0,-36,-8,1,1,8
1523147108118734,1,-9,-14,-58,-8,0,4,5
1523147108119235,5,-7,1,45,-2,-1,-3,-7
1523147108119235,-3,-10,-5,-47,-16,-2,-1,3
1523147108141352,0,21,-1,32,1,-4,-1,-30
1523147108141352,36,25,7,-27,-8,5,16,26
1523147108141795,-13,12,1,8,-1,3,1,-1
1523147108141795,21,-18,-9,-24,10,1,-5,4
1523147108155332,-24,-17,-9,-10,-34,-9,-7,-13
1523147108155332,2,7,8,50,35,0,-12,-16
1523147108156336,-9,-14,-19,-3,-9,2,2,-29
1523147108156336,14,28,10,-11,-14,-2,4,7
1523147108179012,-2,-1,-3,-32,-6,3,5,18
1523147108179012,-15,-17,-2,0,3,-7,-5,-5
1523147108179395,1,-4,5,41,16,0,-1,-4
1523147108179395,-24,-5,6,15,35,-1,-14,-39
1523147108200951,10,-10,-4,-18,5,5,20,79
1523147108200951,-26,-7,5,-33,-16,-1,-3,6
1523147108201956,-7,-3,-7,-66,-30,-1,-2,-24
1523147108201956,-9,-12,-5,13,-3,-6,7,39
1523147108215490,-28,-23,-16,42,19,-4,-12,-33
1523147108215490,-11,-58,-6,9,0,3,-5,-37
1523147108216562,79,4,7,-1,-2,6,12,61
1523147108216562,7,32,9,23,2,-2,8,9
1523147108238792,-10,26,-3,4,-2,-5,-23,-90
1523147108238792,-45,4,-6,-15,-9,-2,-2,10
1523147108239794,13,-13,2,7,7,-2,-4,-27
1523147108239794,46,4,-10,-6,-6,-6,-14,-25
1523147108261112,-33,-35,6,-9,-5,1,10,35
1523147108261112,-16,-25,0,17,6,-1,-11,-31
1523147108261614,-20,13,7,-5,-1,-3,-3,-10
1523147108261614,7,26,8,-5,-4,4,-3,-31
1523147108275792,-88,-58,-6,-11,-8,-6,-14,-57
1523147108275792,14,19,-3,9,1,-7,-14,-22
1523147108276151,-18,-30,-4,-5,1,4,13,56
1523147108276151,29,-24,-10,-11,-7,2,2,23
1523147108299392,53,30,3,14,8,-1,5,33
1523147108299392,6,-20,-1,-1,0,1,2,3
1523147108299715,0,32,2,-8,-3,1,8,29
1523147108299715,-1,-6,-5,-12,-14,-6,-4,4
1523147108321567,28,27,9,11,8,5,5,22
1523147108321567,0,2,0,-32,7,5,9,18
1523147108322122,-3,3,-3,13,-4,-9,-5,1
1523147108322122,-24,-16,1,51,33,3,-3,-6
1523147108334658,10,23,-4,-67,-66,5,8,-9
1523147108334658,19,16,14,78,65,-4,-4,-1
1523147108342917,-8,9,0,-13,0,1,-11,-48
1523147108342917,-69,-37,5,-38,-4,3,3,-2
1523147108358921,36,2,-10,-26,-11,-6,-7,-12
1523147108358921,18,13,-11,-24,-28,1,5,11
1523147108359224,-24,-5,1,24,14,-6,-6,-14
1523147108359224,-6,29,4,-25,-10,-3,-5,-14
1523147108381281,13,-6,5,-6,10,-2,1,26
1523147108381281,-2,6,-3,37,-4,4,4,10
1523147108381782,-6,-7,1,-22,-1,1,-1,-2
1523147108381782,6,0,-7,38,13,-3,-2,-6
1523147108395519,5,3,-1,-49,-6,6,8,20
1523147108395519,-6,-4,3,63,-10,-6,-9,-15
1523147108396322,4,36,-3,-1,-25,0,1,1
1523147108396322,-8,4,2,-47,-15,3,0,-36
1523147108418402,10,13,1,95,38,-3,8,57
1523147108418402,-8,1,-5,-15,-8,3,-2,-12
1523147108419384,20,14,3,-77,4,8,6,-2
1523147108419384,-4,13,-1,-4,-9,-4,3,-1
1523147108441099,-9,-2,5,34,19,-5,-6,-15
1523147108441099,17,6,-5,-54,-27,3,6,8
1523147108441943,6,4,0,78,40,-3,-5,-2
1523147108441943,-20,-71,-17,-35,-15,0,-2,12
1523147108455511,-9,-25,7,97,28,-5,-10,-9
1523147108455511,3,9,-2,-85,-17,-1,5,14
1523147108456484,4,-5,-14,3,-12,1,-6,-23
1523147108456484,20,27,2,-11,-8,2,2,8
1523147108478593,-8,0,-1,3,5,-9,-8,-9
1523147108478593,-1,36,10,86,36,0,-2,-1
1523147108479551,-14,-41,-4,-12,-10,-1,1,5
1523147108479551,14,18,-9,-52,-21,-2,-2,1
1523147108501608,12,-5,-10,-87,-43,2,4,1
1523147108501608,3,0,-2,22,30,-8,-10,-10
1523147108502607,-15,-9,3,-1,2,-2,-4,-4
1523147108502607,-4,-1,3,6,-9,7,-3,-24
1523147108515662,16,-8,-4,-6,4,-2,13,44
1523147108515662,7,-14,-7,-29,-8,-5,-5,-10
1523147108516145,-7,-5,-3,-44,-22,-3,1,2
1523147108516145,-11,-15,-3,54,21,-3,-4,-8
1523147108538760,50,25,7,-19,-6,3,-1,2
1523147108538760,5,4,-3,-68,-42,4,9,19
1523147108539206,8,1,7,61,36,-7,-5,-2
1523147108539206,3,2,-1,10,13,-3,0,6
1523147108561248,16,7,2,-8,5,2,-2,-15
1523147108561248,-7,-4,-4,-24,-13,-5,-2,4
1523147108562196,-1,-1,-4,-68,-42,1,2,4
1523147108562196,13,18,6,37,4,-6,-8,-10
1523147108575234,1,32,6,29,12,-2,-3,-18
1523147108575234,5,-7,6,-64,-26,4,10,23
1523147108576236,-12,-5,3,50,38,3,-3,-10
1523147108576236,27,-9,4,66,38,-10,-2,27
1523147108598841,-22,0,-5,-54,-23,7,-8,-42
1523147108598841,16,-36,1,0,-3,-1,5,31
1523147108599295,-15,53,-1,-34,-23,-1,3,10
1523147108599295,14,10,-9,-71,-42,1,6,7
1523147108621354,-8,-21,9,98,83,0,-9,-13
1523147108621354,0,2,-4,2,-28,-2,-3,-14
1523147108621853,-17,-13,-1,27,9,0,0,-3
1523147108621853,-26,-9,-9,-33,-9,1,-2,-3
1523147108643470,-9,3,-2,2,-18,1,4,4
1523147108643470,-26,-32,-3,60,26,-12,-15,-20
1523147108644414,6,-16,-3,-11,-9,-3,-3,0
1523147108644414,-22,-19,-1,-18,-13,-1,8,15
1523147108658509,6,-3,-8,-101,-39,1,8,27
1523147108658509,-15,-2,-1,98,61,-1,-8,-19
1523147108659453,-7,-15,-8,-30,-4,1,-5,-27
1523147108659453,19,8,4,1,15,1,6,38
1523147108681075,-26,1,0,9,-13,-4,-5,-26
1523147108681075,-7,16,1,-22,-4,-1,-3,-16
1523147108682013,17,9,7,-26,-22,-3,1,5
1523147108682013,-3,-13,-7,7,11,1,0,-9
1523147108694548,-2,4,-4,16,17,0,3,5
1523147108694548,3,14,4,-16,-18,3,1,-7
1523147108703134,37,-14,10,86,26,0,0,8
1523147108703134,-32,43,8,-45,-17,2,-2,-4
1523147108718609,-21,-24,-2,-23,-19,-2,-15,-59
1523147108718609,24,-17,-28,-29,-7,5,18,69
1523147108719613,3,6,-5,-24,-4,0,-1,-13
1523147108719613,-30,-2,-4,8,-1,-3,-3,-21
1523147108741326,63,6,-11,8,3,-1,3,42
1523147108741326,-4,16,12,-19,-3,2,-4,-24
1523147108741765,-67,-93,-28,0,0,-3,0,7
1523147108741765,34,17,10,22,6,0,-18,-92
1523147108754950,-15,5,-8,0,2,1,23,48
1523147108754950,-7,9,0,2,-4,-5,0,-13
1523147108762971,-87,-22,-6,-17,-12,-7,-21,-66
1523147108762971,18,24,12,0,-4,-3,0,23
1523147108778526,-76,-114,-30,-13,-9,-14,-16,-39
1523147108778526,72,11,3,-3,0,3,-2,6
1523147108779456,-33,40,6,-10,-7,-5,-6,-16
1523147108779456,-5,-37,-22,19,10,3,-1,2
1523147108808593,26,49,-4,11,5,5,3,17
1523147108808593,-30,41,-7,-2,1,3,10,19
1523147108809539,-6,10,19,-1,2,2,3,18
1523147108809539,1,2,10,12,7,1,8,18
1523147108814609,10,23,16,1,-7,-2,0,2
1523147108814609,-4,-1,0,-4,-1,0,-12,-68
1523147108823134,93,21,0,-2,3,3,12,44
1523147108823134,3,-3,-4,-8,-10,-2,3,11
1523147108838126,-26,5,6,-40,-12,-2,-2,-18
1523147108838126,-19,-22,-1,20,27,-5,-13,-27
1523147108838614,35,8,-1,-37,-31,-9,-4,7
1523147108838614,-6,-16,-4,36,25,1,-1,-16
1523147108861233,-33,-13,-1,3,14,-8,-14,3
1523147108861233,-3,4,12,-26,-28,-3,1,4
1523147108862178,1,9,-2,6,9,1,10,29
1523147108862178,-17,-11,-5,-70,-60,-3,0,-1
1523147108874769,8,6,6,-14,22,3,-2,-4
1523147108874769,-15,-13,-2,99,20,-5,-5,10
1523147108882790,-7,-4,-2,-26,-8,1,1,-12
1523147108882790,7,5,0,-8,-1,1,2,6
1523147108897329,7,4,9,16,6,0,-4,-7
1523147108897329,-10,-13,-12,-83,-33,2,3,3
1523147108906294,26,4,2,31,14,1,-2,-2
1523147108906294,10,1,-5,11,-3,-3,-2,13
1523147108921335,33,7,0,-30,-29,7,7,1
1523147108921335,-3,-11,3,62,73,-9,-4,15
1523147108922840,10,27,0,-1,-13,-4,-5,-7
1523147108922840,6,-24,-2,-6,-16,3,1,-19
1523147108934871,-8,0,4,33,10,-6,-6,7
1523147108934871,-19,-5,3,-32,-16,4,2,-3
1523147108943894,4,4,-12,1,-52,2,7,10
1523147108943894,-14,-49,10,101,107,-5,-12,-1
1523147108957451,11,7,-8,-38,-58,-3,0,-7
1523147108957451,7,-4,-6,-14,-11,5,4,5
1523147108966454,-4,0,2,-49,5,0,2,7
1523147108966454,-9,29,17,-65,-45,-3,0,-2
1523147108981060,-9,-33,-27,-34,2,2,3,4
1523147108981060,-12,0,7,86,23,-8,-12,-1
1523147108983001,-4,-6,1,4,19,0,-4,-8
1523147108983001,10,10,-6,-8,-7,-2,-1,7
1523147108995035,22,4,7,-24,-8,-4,0,14
1523147108995035,-13,1,-1,25,1,-4,-7,-17
1523147109003574,19,-5,-5,-16,-18,-1,15,55
1523147109003574,-10,8,3,23,14,-4,-6,8
1523147109018675,-20,9,1,6,28,2,-1,-8
1523147109018675,24,-1,4,26,1,-1,-10,-41
1523147109020119,28,5,6,5,8,1,0,20
1523147109020119,15,31,6,-37,-10,3,7,24
1523147109041326,2,9,-10,-81,-78,2,7,1
1523147109041326,-8,-19,4,33,69,-2,-8,-8
1523147109042771,-13,-11,-1,37,35,-6,-15,-44
1523147109042771,-55,-2,-10,-32,-39,-1,5,-11
1523147109063834,-2,2,1,-18,17,-2,-1,2
1523147109063834,5,9,-2,-15,-23,-3,2,13
1523147109065331,-12,-10,-1,38,9,-1,-3,-17
1523147109065331,-57,-15,-9,-7,-1,-1,-19,-85
1523147109086386,3,-5,8,45,22,-1,5,18
1523147109086386,-8,12,-5,-33,-25,3,5,-8
1523147109087892,-13,2,0,-21,23,-1,0,-1
1523147109087892,38,42,5,87,-12,0,6,27
1523147109100927,-8,-27,16,54,23,-6,-13,-38
1523147109100927,8,8,-8,-80,-46,1,9,26
1523147109102932,3,-1,-7,-72,-27,2,-2,-13
1523147109102932,10,-2,2,45,41,0,-3,8
1523147109123486,4,6,6,49,25,3,1,1
1523147109123486,-31,-20,-14,4,-27,-3,4,15
1523147109124990,-21,-11,0,-88,-3,-2,-7,-17
1523147109124990,11,-14,-3,45,1,-7,-4,-3
1523147109138084,6,-21,-3,20,1,3,2,4
1523147109138084,1,6,2,-32,-2,3,3,17
1523147109145046,-6,29,-2,-21,-21,-1,3,-2
1523147109145046,23,-5,-13,-128,-64,4,11,28
1523147109161152,-14,-5,6,127,113,-7,-24,-31
1523147109161152,14,1,2,-58,-34,1,9,13
1523147109162592,-6,-14,-1,-5,-7,3,12,36
1523147109162592,27,21,-6,-30,-4,1,20,113
1523147109183647,-13,8,-4,-42,-31,0,-2,-27
1523147109183647,12,13,0,-10,-1,0,-4,-26
1523147109185150,-22,-8,-2,41,-4,-4,-6,-17
1523147109185150,5,-64,0,-1,21,2,-10,-44
1523147109198185,-3,7,-1,61,28,2,6,34
1523147109198185,9,9,11,-6,0,0,-1,3
1523147109204761,-4,-3,2,6,-14,-5,-6,-5
1523147109204761,-10,4,-5,-18,1,-4,-5,-9
1523147109221304,-1,1,-10,-88,-49,-3,1,-4
1523147109221304,2,-25,-13,86,51,-2,-8,-8
1523147109222752,1,-13,-8,5,-13,5,-1,-10
1523147109222752,-2,8,8,20,54,0,-15,-43
1523147109243829,27,-12,6,-14,-22,2,35,103
1523147109243829,6,32,-3,-72,-31,-3,4,25
1523147109245312,-46,-76,-18,6,0,-7,-12,-39
1523147109245312,8,31,-3,29,13,3,9,33
1523147109257993,-23,12,14,-25,-20,0,0,-1
1523147109257993,-45,-51,-3,1,5,-1,-11,-53
1523147109264954,99,44,14,18,6,-4,20,100
1523147109264954,-52,-12,-10,-5,-9,0,-8,-46
1523147109281060,-37,-9,-2,-11,-5,-6,-9,19
1523147109281060,7,-67,-12,-17,-10,0,-3,-28
1523147109282500,-18,-42,-11,33,19,1,-4,-10
1523147109282500,36,-19,-10,-20,-8,3,5,-29
1523147109303613,-22,19,-5,-10,-10,-1,1,3
1523147109303613,-13,9,5,5,5,-1,-8,-24
1523147109305058,36,22,7,0,2,3,3,11
1523147109305058,5,-19,-19,9,1,-4,-6,-37
1523147109318092,14,-3,-4,12,0,3,1,-18
1523147109318092,-20,18,0,-16,-12,-4,0,8
1523147109324670,-1,21,3,10,12,2,-6,-28
1523147109324670,-17,21,12,-19,-15,-8,-8,-7
1523147109341215,44,14,-3,3,-2,-3,-10,-37
1523147109341215,-33,7,3,-7,-2,1,4,6
1523147109342659,5,12,8,3,1,-1,0,-3
1523147109342659,-17,-2,3,-1,-6,-1,0,-7
1523147109363781,8,-19,-12,-4,1,-3,-7,-13
1523147109363781,31,16,0,-74,-41,-1,5,16
1523147109365229,-46,-2,5,69,57,-4,-12,-25
1523147109365229,-3,-2,-2,-19,-10,-4,3,12
1523147109377346,8,11,-6,-67,-43,1,1,-12
1523147109377346,3,10,5,82,47,-2,-1,5
1523147109386371,7,9,-5,-41,-18,-1,-4,-7
1523147109386371,10,-1,2,3,-9,2,3,20
1523147109401412,-6,-4,-1,13,7,-2,-4,-15
1523147109401412,-8,1,-4,55,-8,-8,-2,-4
1523147109402915,-5,-5,7,56,66,0,-6,-8
1523147109402915,10,4,5,-4,-21,2,9,22
1523147109423528,-8,-3,-13,-63,-61,6,6,-11
1523147109423528,-45,-16,11,64,80,-15,-17,-16
1523147109424974,5,-13,-12,-108,-56,0,6,34
1523147109424974,-5,5,-1,-75,11,2,2,9
1523147109437508,-15,10,5,71,58,0,-9,-29
1523147109437508,7,3,-2,-56,-39,1,9,23
1523147109446033,15,36,0,-57,-75,3,3,-6
1523147109446033,-16,-12,2,68,46,-9,-15,-21
1523147109461569,2,-3,-5,-110,-50,-4,-1,2
1523147109461569,21,8,-4,-89,-31,6,5,6
1523147109463075,-9,19,-1,-43,-24,-1,1,-14
1523147109463075,8,9,14,37,24,2,0,11
1523147109484131,-8,0,7,42,-1,-6,-5,-7
1523147109484131,12,9,13,-32,9,6,2,4
1523147109486139,-4,-15,-23,38,-18,3,3,-5
1523147109486139,10,3,1,8,-10,-3,-6,-12
1523147109498208,-43,-31,-3,60,53,-4,10,65
1523147109498208,-28,4,-11,-74,-47,0,-3,-3
1523147109504800,-12,-13,3,-44,-41,-2,-1,-12
1523147109504800,-44,-26,-4,76,47,-4,-9,-3
1523147109521336,8,15,-10,-41,-21,0,-6,-21
1523147109521336,39,9,1,-13,0,-2,4,12
1523147109522735,-15,-7,9,68,54,-7,-13,-20
1523147109522735,12,3,0,-12,-1,1,-3,-14
1523147109543876,-1,-9,-5,-50,-41,-1,2,-3
1523147109543876,11,-35,-16,-2,-3,3,10,25
1523147109545296,-7,-7,3,43,34,-4,-7,-12
1523147109545296,8,1,-1,-39,-28,0,-1,0
1523147109557431,14,-2,-7,-36,-2,5,1,-19
1523147109557431,-10,2,5,92,13,-6,-9,-9
1523147109566349,-2,4,8,-5,22,-2,-3,-4
1523147109566349,10,1,-6,-52,-32,1,8,23
1523147109581390,0,9,0,-40,-45,2,5,5
1523147109581390,-10,-4,4,87,87,-6,-19,-33
1523147109582895,-3,-12,-8,-38,-29,-4,1,-15
1523147109582895,15,15,3,-7,-4,0,1,11
1523147109603685,9,-10,-3,-22,-2,-2,-4,-4
1523147109603685,-34,-13,-7,-14,-24,5,7,1
1523147109609669,25,2,4,98,33,-5,-13,-25
1523147109609669,35,-49,-10,-43,-17,-8,4,23
1523147109616983,1,1,8,20,16,-1,-1,1
1523147109616983,30,13,-12,-122,-80,4,6,2
1523147109626587,-22,-7,1,70,56,-1,-6,11
1523147109626587,-7,13,3,-8,-23,4,5,-1
1523147109641785,21,8,6,8,13,-2,-2,3
1523147109641785,0,-17,-8,14,2,-1,1,-5
1523147109643053,12,17,-7,-66,-38,4,9,24
1523147109643053,-12,10,4,7,-17,0,1,-3
1523147109663784,-5,-8,4,92,41,-3,-7,-14
1523147109663784,29,16,8,-20,2,5,-2,-16
1523147109665124,-27,-14,0,-32,-9,6,12,27
1523147109665124,20,50,-12,-13,-5,2,2,0
1523147109677287,-3,-8,-10,-80,-32,0,1,3
1523147109677287,0,2,8,90,27,-5,-8,-5
1523147109686180,6,1,2,12,15,10,4,7
1523147109686180,-28,9,1,-33,-18,-3,0,5
1523147109701249,2,21,1,-47,5,0,-1,1
1523147109701249,-10,-24,-5,19,5,-3,-2,4
1523147109702725,1,-4,-4,3,-8,-4,-7,-24
1523147109702725,-40,-23,-10,-14,-11,-5,5,17
1523147109724009,-9,19,3,21,15,-1,0,-1
1523147109724009,-30,-5,2,-21,-8,-1,-2,8
1523147109725490,-7,3,1,33,11,-3,-1,-5
1523147109725490,6,-10,7,18,9,0,-7,-17
1523147109737517,-37,-28,-3,28,4,0,-4,-19
1523147109737517,10,40,-1,-22,-5,0,2,5
1523147109746340,12,-13,-9,-54,-31,1,3,-1
1523147109746340,8,4,19,-13,7,0,-4,-10
1523147109761405,29,10,-6,35,8,-7,-10,-32
1523147109761405,-5,66,2,-27,-14,6,8,19
1523147109762884,-50,-21,-4,-26,-3,-8,-13,-39
1523147109762884,67,43,2,9,4,-2,-13,-65
1523147109783939,48,-24,3,15,11,1,3,10
1523147109783939,-30,-7,1,-8,0,0,2,1
1523147109785445,-23,-9,0,-10,-13,-11,8,77
1523147109785445,65,41,-4,13,9,1,-1,19
1523147109797555,-40,-108,-20,6,-3,-5,-15,-50
1523147109797555,6,24,14,-15,1,2,9,42
1523147109806000,24,-24,3,-3,4,6,-13,-78
1523147109806000,-3,-75,-1,-5,2,6,12,26
1523147109821197,16,63,19,2,8,4,7,9
1523147109821197,-6,-42,-25,4,-5,-7,-9,-5
1523147109823121,8,-17,-20,-10,-6,-2,0,2
1523147109823121,23,5,-2,0,4,-2,0,-9
1523147109843836,7,11,13,5,1,0,0,-20
1523147109843836,11,-4,-2,2,-1,-3,-4,-11
1523147109845184,-7,36,-2,-11,-5,1,1,-3
1523147109845184,4,5,7,-7,-5,-5,-3,0
1523147109857367,-32,6,-7,0,-3,-2,1,20
1523147109857367,26,-8,-1,-27,-3,2,-1,-10
1523147109866393,15,4,-2,-16,8,-5,-3,17
1523147109866393,-28,-5,7,27,8,7,8,31
1523147109880429,-14,-3,-6,38,34,-4,-6,6
1523147109880429,7,0,5,-108,-59,-1,0,-14
1523147109887575,12,5,-3,-3,5,-3,-2,-11
1523147109887575,-42,-9,-4,7,-6,-2,-16,-45
1523147109903722,4,18,-9,-27,-38,2,5,17
1523147109903722,8,-8,2,95,62,1,-4,-8
1523147109905226,10,11,1,-78,-59,2,13,31
1523147109905226,-22,-31,-15,-70,-6,-11,-10,-7
1523147109917258,-14,0,7,121,53,-2,-16,-44
1523147109917258,7,-7,2,-29,-16,0,4,25
1523147109926282,8,5,4,-26,-8,6,3,-19
1523147109926282,-15,-53,-17,77,-3,-5,-4,-7
1523147109940520,12,-10,3,-23,-3,-6,-4,24
1523147109940520,-3,-7,-12,-23,-29,-4,-4,-1
1523147109947007,24,0,-4,-63,-22,-11,-8,-9
1523147109947007,12,33,4,74,39,3,16,29
1523147109963680,-9,-35,-5,-51,-9,13,8,4
1523147109963680,-4,16,-5,32,9,-4,-9,-19
1523147109965052,-16,-17,8,24,11,-4,-8,-10
1523147109965052,-15,-26,-5,22,8,-6,-7,13
1523147109986397,22,14,2,-39,-18,-1,5,13
1523147109986397,5,28,-4,-33,-21,5,4,1
1523147109987771,-2,-4,3,9,12,3,1,-9
1523147109987771,-20,19,3,17,14,-4,-4,0
1523147110001396,-31,6,-11,-61,-72,0,8,20
1523147110001396,-9,-26,6,47,89,-5,-14,-22
1523147110002849,-1,17,0,-20,-35,-3,-3,-19
1523147110002849,18,6,-7,-34,-13,4,7,14
1523147110023903,-64,-26,3,66,19,-13,-17,-47
1523147110023903,-1,-40,-4,-1,-15,3,10,21
1523147110025497,-9,2,-3,26,10,1,-3,2
1523147110025497,-5,13,-4,-105,-68,2,3,-3
1523147110046089,17,31,10,34,57,3,-1,1
1523147110046089,-7,5,-5,20,-1,-2,-9,-33
1523147110048051,19,-27,-3,35,13,0,12,61
1523147110048051,-23,3,1,-20,0,1,-4,-22
1523147110061175,39,68,0,-17,-9,-1,7,32
1523147110061175,-1,-23,2,1,-16,-5,-5,-11
1523147110062957,19,19,-4,-23,-3,4,1,-3
1523147110062957,1,-2,2,5,5,-2,0,5
1523147110083515,5,4,-7,-1,12,-3,-3,5
1523147110083515,-13,9,2,10,-6,-1,-2,-17
1523147110085020,-31,-1,5,-20,-9,5,2,-13
1523147110085020,5,10,-3,-49,-7,1,12,32
1523147110106492,-14,-16,2,70,23,-5,-9,-10
1523147110106492,2,3,-5,-67,-66,0,6,10
1523147110107750,8,-3,1,40,36,1,2,25
1523147110107750,-25,2,0,-4,9,-4,-6,-9
1523147110120794,25,-1,-11,-74,-34,5,7,15
1523147110120794,-12,0,-4,61,21,-8,-9,-17
1523147110127498,10,11,3,-23,9,-2,-11,-34
1523147110127498,8,-6,11,45,22,-4,4,41
1523147110143846,14,-12,-12,-44,-25,0,7,15
1523147110143846,-4,5,-1,-34,-12,2,0,-3
1523147110145351,-20,-15,8,112,72,-5,-9,-18
1523147110145351,-36,9,0,-48,-35,-1,-5,-20
1523147110165906,7,12,9,16,15,-1,-1,-8
1523147110165906,17,4,-11,-115,-79,6,14,22
1523147110167931,-28,-18,-1,90,51,-9,-12,-12
1523147110167931,23,-6,-3,10,33,-2,-13,-36
1523147110180606,-3,-3,6,-38,-10,1,11,61
1523147110180606,4,2,-1,-16,9,0,2,6
1523147110195053,25,15,-11,-75,-54,1,9,18
1523147110195053,-5,0,-7,7,-8,-2,-4,-20
1523147110203542,-4,-8,5,33,31,-2,-5,-18
1523147110203542,11,-2,6,11,19,4,2,-7
1523147110205009,27,-1,1,45,-14,-1,1,13
1523147110205009,-9,13,-7,2,-2,4,8,13
1523147110226065,10,-78,-4,-22,1,1,-2,-16
1523147110226065,-24,-51,1,16,10,-2,3,11
1523147110228128,37,20,8,-14,0,-1,-5,-16
1523147110228128,4,-8,-4,-7,-9,0,-9,-24
1523147110240384,17,7,-1,2,-12,2,4,-8
1523147110240384,-62,4,0,33,31,0,-5,-33
1523147110247434,-7,24,-16,-18,-16,-5,-10,-36
1523147110247434,-5,-26,10,-8,-10,1,21,42
1523147110263938,-59,-32,-9,0,-3,-10,-23,-76
1523147110263938,36,46,17,23,19,0,7,41
1523147110265239,-24,13,4,-35,-22,-1,-8,-31
1523147110265239,78,27,-3,4,5,0,-3,-24
1523147110293933,-92,14,-12,-1,-7,-9,-17,-69
1523147110293933,39,-4,-17,-4,-8,-14,-22,-48
1523147110295319,11,64,18,-3,3,11,4,-16
1523147110295319,-2,5,7,8,11,2,-2,-4
1523147110300333,61,35,15,3,-3,1,10,49
1523147110300333,-10,-53,-8,7,1,1,-9,-16
1523147110307351,-5,-2,-9,-21,-6,-2,7,34
1523147110307351,8,-6,-2,2,0,3,-1,-14
1523147110323896,10,2,-4,-33,-19,4,8,18
1523147110323896,-49,-11,-24,68,31,-3,-6,-10
1523147110325526,7,-19,-5,-11,-7,-5,2,26
1523147110325526,-13,-9,-6,-106,-60,8,15,40
1523147110346084,-8,-10,0,106,71,-1,-15,-35
1523147110346084,60,13,14,-3,-5,-8,6,74
1523147110348023,-17,-1,-1,-73,-16,6,11,8
1523147110348023,-13,4,-21,6,-25,-14,-21,-44
1523147110360046,32,32,12,-75,-26,6,12,29
1523147110360046,-42,3,4,90,31,3,-1,-23
1523147110369015,-39,-26,-3,-6,4,-7,-4,4
1523147110369015,6,-4,6,-62,-20,1,2,9
1523147110383554,18,6,8,76,18,2,-2,-1
1523147110383554,-11,-2,-10,-87,-34,0,6,5
1523147110385057,-10,-19,-6,36,4,-3,-4,-7
1523147110385057,-12,-2,1,46,22,-1,-8,-35
1523147110406240,6,-9,2,16,25,-6,12,69
1523147110406240,16,22,4,-17,-19,-1,-3,-17
1523147110407618,8,-2,-10,-58,-8,5,7,18
1523147110407618,1,-3,2,29,14,1,-6,-5
1523147110419776,-11,7,-1,-22,-38,0,1,-18
1523147110419776,17,26,4,-80,-35,-3,5,11
1523147110428673,6,-12,4,-25,13,0,-3,-10
1523147110428673,-27,-12,2,86,72,-6,-13,-10
1523147110444348,2,-9,-16,-116,-66,-2,0,-2
1523147110444348,49,17,6,-18,17,2,-1,-6
1523147110445720,-31,4,-4,69,-27,-1,1,-9
1523147110445720,21,26,7,13,23,0,-2,-1
1523147110465773,-16,1,-7,-28,-3,-1,-6,-12
1523147110465773,9,-18,-17,-86,-28,-2,6,19
1523147110472290,12,22,14,86,76,-2,-3,-1
1523147110472290,19,-61,-8,-31,-16,1,8,31
1523147110479855,-1,-5,-11,-12,-12,-4,0,13
1523147110479855,-10,8,3,-27,-8,2,-3,-16
1523147110488834,3,-3,-7,1,-15,-2,1,8
1523147110488834,-17,-1,2,51,21,-7,-12,-23
1523147110503896,8,-10,-6,35,27,2,7,18
1523147110503896,-3,-4,-5,-68,-21,2,4,10
1523147110505379,-5,-22,-1,63,-8,-4,-11,-15
1523147110505379,-8,2,-7,-88,-20,-2,1,-7
1523147110526058,6,8,0,47,21,0,-3,-1
1523147110526058,-23,1,4,13,-1,1,-4,-20
1523147110527936,-20,-25,-4,-19,11,5,4,3
1523147110527936,9,25,27,-16,-14,1,4,12
1523147110540046,-4,8,4,-8,-15,-2,-4,-16
1523147110540046,5,-12,1,43,14,-2,8,54
1523147110548993,-53,-41,-13,-62,-41,-10,-11,-20
1523147110548993,-1,-12,-9,0,1,0,6,31
1523147110563662,3,1,-1,-11,-11,-3,-15,-58
1523147110563662,7,-3,1,8,14,6,23,72
1523147110565036,-1,27,10,57,-2,-4,-4,-6
1523147110565036,-22,-27,-5,33,22,-2,-1,4
1523147110586218,-30,-8,-3,-4,-6,-2,-6,-10
1523147110586218,-6,-8,-2,7,5,-5,-9,-28
1523147110587597,28,8,-8,-71,-24,4,7,19
1523147110587597,6,12,-11,-89,-56,5,8,-7
1523147110599628,-8,-13,14,112,84,-13,-17,-2
1523147110599628,-11,8,2,-30,-3,5,0,-11
1523147110608653,10,1,0,-27,0,0,3,-4
1523147110608653,-5,2,-10,-30,-30,2,-4,-19
1523147110623692,9,5,-5,-91,-33,4,11,22
1523147110623692,-1,3,9,99,33,-10,-14,-33
1523147110625198,23,-12,-13,9,-1,-3,-1,4
1523147110625198,-2,-6,-9,-1,1,1,1,15
1523147110646392,24,16,-1,-69,-37,4,6,9
1523147110646392,-16,-7,5,79,55,-1,-22,-78
1523147110647757,20,-3,3,-18,-20,5,24,49
1523147110647757,57,35,8,7,5,-2,8,53
1523147110659965,-2,-1,-6,3,-7,2,5,16
1523147110659965,7,-3,-10,-90,-52,3,0,-11
1523147110668812,-19,-28,11,81,87,-6,-18,-37
1523147110668812,5,9,4,53,24,-2,-7,-27
1523147110683987,-11,11,-2,-20,-14,-1,2,9
1523147110683987,13,1,-1,-21,-15,0,4,25
1523147110685356,15,12,-3,-88,-32,7,4,8
1523147110685356,-24,-7,-5,92,19,-9,-6,-16
1523147110706459,-7,-10,8,81,39,-11,-19,-21
1523147110706459,-7,4,2,-8,-6,5,5,-3
1523147110708147,6,9,-13,-25,-13,-3,-1,2
1523147110708147,-9,4,8,-27,-2,-1,-3,-9
1523147110719919,-8,-6,2,-37,-24,1,2,-6
1523147110719919,4,0,3,36,14,-3,-5,5
1523147110728948,2,6,7,-2,1,1,5,24
1523147110728948,20,-4,-9,-16,-7,7,-5,-31
1523147110750999,36,19,3,-6,-2,3,6,-9
1523147110750999,-54,-56,-5,9,7,-6,7,60
1523147110753005,31,18,11,-7,-11,-4,-5,-17
1523147110753005,7,37,-16,-7,-3,-4,-16,-50
1523147110766041,37,-23,-4,1,1,-1,2,34
1523147110766041,-19,9,-9,9,4,-3,-14,-45
1523147110767543,48,46,8,-4,-6,3,2,6
1523147110767543,-35,-30,-18,-1,-1,-3,16,59
1523147110780075,-36,39,5,-6,-5,-9,-29,-53
1523147110780075,-17,4,-17,2,0,10,9,3
1523147110788597,-91,-70,-5,0,0,-1,-3,-24
1523147110788597,-32,-31,2,-18,-10,-8,-18,-47
1523147110803684,-18,-29,-15,-5,0,7,26,57
1523147110803684,0,-9,-9,-4,-8,-9,-22,-58
1523147110805143,-23,43,11,9,7,-1,1,7
1523147110805143,-14,-42,7,-6,1,-1,-8,-34
1523147110826297,10,-72,-4,-20,-11,-2,0,0
1523147110826297,-52,24,20,2,-5,-7,-4,-10
1523147110827790,7,-39,-6,-2,-2,1,7,12
1523147110827790,0,19,11,-5,-1,1,5,28
1523147110848846,13,34,5,0,2,5,-2,-11
1523147110848846,46,-7,4,1,4,3,10,22
1523147110850350,-1,5,-10,-9,-10,-3,-9,-8
1523147110850350,-10,25,22,-27,-8,3,1,-2
1523147110862934,-54,-16,-9,11,10,-2,-2,-2
1523147110862934,18,1,-5,16,1,-2,-2,-5
1523147110869945,6,-9,-2,-41,-24,0,0,2
1523147110869945,13,4,-2,85,53,-5,-5,9
1523147110885997,5,13,1,-17,-8,5,1,-24
1523147110885997,18,16,-2,-51,-15,3,14,44
1523147110887950,-9,-9,-10,32,-16,-6,-7,-11
1523147110887950,-4,-5,0,24,23,-7,-4,4
1523147110899987,2,9,1,10,0,-2,-2,-15
1523147110899987,3,3,-4,-6,-10,1,-4,-8
1523147110909007,23,9,3,-47,-3,5,5,15
1523147110909007,-9,-8,0,49,6,3,-2,-27
1523147110923045,-28,-16,-13,-91,-70,-2,9,35
1523147110923045,18,6,11,75,75,-3,-4,3
1523147110929606,0,-4,-2,-1,-12,-1,-5,-21
1523147110929606,-20,-7,-18,-117,-55,2,12,51
1523147110946106,-15,16,5,8,40,-7,-6,-21
1523147110946106,14,-17,-7,-50,-58,1,9,29
1523147110947609,-6,33,5,69,29,3,-7,-25
1523147110947609,15,-15,3,29,16,-7,-4,-9
1523147110968906,20,17,-10,-104,-48,5,7,4
1523147110968906,2,-5,-3,63,17,0,-4,-11
1523147110970168,10,12,10,67,41,0,-3,-8
1523147110970168,3,10,3,-54,-1,-2,-2,1
1523147110983951,16,-3,3,-49,-33,3,4,3
1523147110983951,7,13,-6,-53,-2,1,-2,-13
1523147110985209,-7,-21,-9,-79,-40,-3,5,14
1523147110985209,18,12,-7,38,7,6,5,13
1523147111006460,-29,-25,-11,42,19,-10,-3,20
1523147111006460,5,9,-1,-15,-17,-1,-4,-14
1523147111007769,-7,-4,-1,17,32,0,-12,-49
1523147111007769,56,22,-4,-4,-16,2,21,93
1523147111029079,25,-14,8,36,27,-1,-7,-22
1523147111029079,-2,-8,-1,-47,-43,0,9,16
1523147111030086,36,4,-2,-62,-28,-8,-2,1
1523147111030086,-4,25,14,81,15,-9,-20,-63
1523147111042663,6,-36,-8,78,38,0,3,29
1523147111042663,1,-3,1,-40,-10,0,4,12
1523147111051643,7,-4,-3,-8,4,2,5,14
1523147111051643,-4,10,5,-88,-53,9,7,-10
1523147111066181,-3,15,7,23,-3,-5,-9,-11
1523147111066181,3,-2,1,-31,-1,-4,-4,-1
1523147111067685,-23,-14,-14,-42,-1,-2,2,12
1523147111067685,-10,5,1,-74,-41,2,3,-2
1523147111088984,-7,1,-3,31,33,6,-13,-50
1523147111088984,10,21,7,43,33,0,8,19
1523147111090246,-5,-56,-13,-33,-40,-7,-3,-4
1523147111090246,-28,-11,-2,27,23,-3,-6,-26
1523147111102484,11,18,14,0,5,-3,0,-1
1523147111102484,2,7,-2,-25,-29,-2,-7,-33
1523147111111513,-6,0,7,49,56,6,0,11
1523147111111513,-6,9,-1,-2,12,-10,-5,5
1523147111127155,4,-3,-2,7,5,-1,-3,-13
1523147111127155,0,-11,-7,-21,-29,0,-1,-4
1523147111128813,-10,22,0,-104,-12,2,10,17
1523147111128813,-19,-27,6,88,45,-7,-14,-20
1523147111148715,1,17,-6,-24,-13,2,-3,-21
1523147111148715,-1,-4,0,-22,0,1,3,8
1523147111150220,15,4,0,-19,-15,-1,0,3
1523147111150220,-32,-9,-13,-9,-22,-1,0,-6
1523147111163337,1,0,-1,22,3,-10,-8,-9
1523147111163337,-9,-9,5,51,30,5,-1,-6
1523147111170008,5,1,12,-2,-12,1,1,0
1523147111170008,43,6,-7,-36,-11,3,1,-16
1523147111186453,-32,56,15,-2,-2,-2,10,45
1523147111186453,-8,-23,-2,-9,-7,-6,-5,-9
1523147111187820,-6,-6,-2,39,20,-6,-8,0
1523147111187820,-5,0,0,-95,-42,3,3,-5
1523147111208609,40,1,-6,88,50,-2,-2,12
1523147111208609,-1,0,-18,-72,-17,0,-3,-12
1523147111210380,-11,2,3,86,33,0,-1,-5
1523147111210380,3,-7,1,-17,-23,-5,0,9
1523147111223110,-15,-17,-9,-68,-45,4,5,-2
1523147111223110,-1,3,6,16,6,-6,-8,-18
1523147111230124,8,3,-6,-15,-3,1,4,17
1523147111230124,-11,-25,-13,-7,5,1,0,6
1523147111245974,16,2,4,-10,-8,1,-1,-3
1523147111245974,-3,-6,8,34,24,0,-5,-7
1523147111248091,24,0,-8,-10,-13,4,10,53
1523147111248091,22,14,12,15,10,-2,2,-2
1523147111276184,-60,-32,-20,-51,-22,-3,1,21
1523147111276184,-25,3,0,19,6,-7,-19,-26
1523147111277557,29,54,15,7,-8,-4,8,16
1523147111277557,7,-4,-6,-5,1,-1,5,7
1523147111283073,48,-17,-15,-3,1,-1,-9,-48
1523147111283073,18,41,11,4,-6,-10,-29,-80
1523147111290091,-20,5,1,5,-5,0,2,-7
1523147111290091,32,9,-1,-23,-3,-6,-20,-56
1523147111306823,10,-20,8,-9,-4,4,16,-3
1523147111306823,-10,-10,13,4,-2,-7,5,39
1523147111308429,42,12,-7,-7,-8,-3,-23,-58
1523147111308429,3,-25,2,4,10,6,7,-27
1523147111328630,9,7,-5,-4,-3,2,10,41
1523147111328630,7,-2,-5,3,3,2,12,38
1523147111330009,-37,-26,0,4,0,0,5,20
1523147111330009,-17,-10,-23,5,5,4,5,30
1523147111343194,4,13,8,0,-1,0,-8,-13
1523147111343194,9,-3,-7,3,2,3,6,5
1523147111349559,-23,-8,-10,-7,-6,-1,-8,-24
1523147111349559,-17,2,3,5,-5,2,-1,-4
1523147111366106,6,15,6,-72,-9,2,2,0
1523147111366106,-4,-17,-10,77,34,-6,-4,7
1523147111367607,-20,-14,0,24,-21,-9,-10,-19
1523147111367607,0,10,1,-35,-10,4,4,15
1523147111388790,5,-2,-6,-55,-46,5,6,8
1523147111388790,-22,-10,3,39,54,-8,-12,-25
1523147111390168,-7,2,0,-71,-25,1,4,-2
1523147111390168,22,3,4,9,22,0,2,18
1523147111402329,-7,6,0,-37,-15,-9,-6,-1
1523147111402329,2,-2,-10,53,-5,7,7,3
1523147111411223,2,4,1,-3,-3,0,3,2
1523147111411223,31,-3,-2,13,2,-1,-3,-7
1523147111426915,15,-4,-6,-34,-21,-4,-11,-29
1523147111426915,-6,1,-8,-9,-15,-3,9,41
1523147111428423,-32,-13,5,10,28,-7,-4,6
1523147111428423,-8,17,-3,-128,-50,11,9,13
1523147111448478,-62,-73,-9,127,22,-12,-9,2
1523147111448478,-2,-6,6,50,26,-7,-9,-26
1523147111449980,12,1,-13,-90,-51,3,3,-6
1523147111449980,-18,2,8,59,1,0,1,-14
1523147111462520,-7,2,1,44,52,-6,-8,3
1523147111462520,3,14,4,-118,-36,4,7,6
1523147111471536,-7,-9,-11,-53,-45,-2,2,9
1523147111471536,-8,-1,16,60,70,-7,-12,-7
1523147111486200,2,10,3,-23,-5,3,-1,-2
1523147111486200,16,-5,3,-75,-25,2,6,22
1523147111488080,14,11,-3,-33,4,2,-8,-22
1523147111488080,-5,-5,-36,-48,-33,2,6,13
1523147111508762,13,20,9,13,6,3,2,0
1523147111508762,-50,-8,-2,20,18,-6,-17,-61
1523147111510140,13,4,-8,-58,-43,3,8,31
1523147111510140,-3,-10,0,109,53,-9,-12,-5
1523147111522298,6,-6,3,12,41,-10,-2,24
1523147111522298,20,11,-9,-31,-30,3,-5,-30
1523147111531195,-9,-3,6,16,-2,1,-2,-13
1523147111531195,-10,-6,2,-3,9,-1,-1,2
1523147111545365,11,11,-8,-82,-71,4,5,0
1523147111545365,16,3,-1,-51,12,5,5,12
1523147111553755,-12,-18,8,92,79,-13,-13,-16
1523147111553755,3,7,2,-78,-27,-1,1,12
1523147111568591,-4,7,5,50,8,8,3,-17
1523147111568591,3,-3,-8,-38,-49,3,10,23
1523147111570472,26,-6,5,72,37,-2,-5,-5
1523147111570472,-75,5,2,-7,-12,-5,-4,-10
1523147111582757,20,6,-11,-124,-35,-1,4,1
1523147111582757,8,-7,4,62,21,-1,0,2
1523147111591280,-6,-7,3,27,12,1,-2,19
1523147111591280,-28,13,1,-38,-31,-5,15,76
1523147111606373,-25,-45,-6,-16,-3,1,1,-5
1523147111606373,-1,-2,-12,-1,0,-1,2,14
1523147111607824,-13,-8,1,10,-17,1,-4,-21
1523147111607824,14,-9,-5,-18,7,2,-3,-21
1523147111628653,-4,12,2,31,-14,-5,1,4
1523147111628653,-23,-1,0,-33,-9,-4,-4,-12
1523147111630031,5,-3,-4,-57,-6,0,1,-6
1523147111630031,8,-12,2,98,19,-2,-6,-8
1523147111642563,-3,7,4,26,31,-4,-8,-13
1523147111642563,12,5,8,-11,-3,5,4,1
1523147111651088,-17,-6,6,-9,10,-1,1,3
1523147111651088,5,2,-17,-106,-82,2,2,-11
1523147111666127,-3,4,16,62,61,-3,-10,-8
1523147111666127,2,-7,5,46,11,-3,-6,-23
1523147111667631,-10,11,5,-36,-24,6,17,30
1523147111667631,26,4,-11,-2,7,-5,-3,22
1523147111688813,-3,6,-3,-30,-20,-2,-3,-3
1523147111688813,5,-19,-9,-24,-5,-3,4,25
1523147111690191,-8,2,1,48,34,2,-6,-29
1523147111690191,4,-7,6,1,-3,-1,-6,-27
1523147111702308,22,14,-14,10,12,6,6,22
1523147111702308,4,8,-1,-46,-24,-5,-2,4
1523147111711249,-16,-9,-2,33,2,-5,-5,-18
1523147111711249,-5,-5,-4,2,9,-6,-9,-15
1523147111726291,1,-5,-1,-13,-8,1,4,17
1523147111726291,-19,-3,0,-12,11,4,1,-4
1523147111727799,9,2,-3,21,4,-3,-3,7
1523147111727799,8,-3,16,8,-4,-2,-11,-42
1523147111748853,-2,-11,2,-8,-1,3,7,-12
1523147111748853,-37,16,-18,0,-8,4,-8,-71
1523147111750381,88,58,2,-16,-5,-6,1,37
1523147111750381,-50,-47,-5,-1,10,1,5,26
1523147111762437,-34,4,1,-14,-18,-2,-6,-46
1523147111762437,44,9,-11,17,6,4,5,36
1523147111771409,-88,-6,-9,-24,-15,-14,-15,-47
1523147111771409,39,26,2,10,8,-1,-3,16
1523147111785991,65,29,-1,-9,-1,5,6,22
1523147111785991,-49,-75,11,-1,0,0,13,83
1523147111787952,-33,20,-1,-3,2,2,-9,-46
1523147111787952,52,17,1,-2,-2,-2,-5,-28
1523147111808557,46,-9,-2,-2,0,-1,19,106
1523147111808557,16,31,8,-3,-2,0,-7,-30
1523147111810013,20,-7,-23,6,-1,7,5,15
1523147111810013,-15,-25,1,-1,6,3,1,4
1523147111822543,-57,-24,-5,-6,-6,-3,-12,-46
1523147111822543,59,23,2,8,-3,-5,-4,-1
1523147111831066,4,-23,1,-4,-1,-2,-3,-6
1523147111831066,11,29,-2,0,4,-1,9,20
1523147111846159,-10,-68,-9,-8,-6,-4,-5,-8
1523147111846159,-14,-38,-5,-5,-6,2,-5,-20
1523147111847611,-6,-12,-4,4,12,-2,7,28
1523147111847611,4,2,4,0,-3,1,2,-9
1523147111868712,-11,25,3,-10,9,2,-2,-6
1523147111868712,-3,0,-1,3,-3,-3,0,6
1523147111870171,33,-13,-2,-10,-24,-4,-3,0
1523147111870171,-20,-3,2,-14,8,-5,-5,-13
1523147111891378,-7,14,2,27,0,-5,-4,-1
1523147111891378,-1,13,-1,-29,-2,5,6,3
1523147111892886,2,-8,-1,26,-19,6,6,4
1523147111892886,-13,0,5,9,18,-3,2,8
1523147111905919,-2,10,-2,2,10,-1,-11,-17
1523147111905919,-1,1,4,45,29,-13,-13,-27
1523147111907926,4,0,-1,-109,-38,4,8,21
1523147111907926,1,-15,-12,-8,-15,-2,0,-5
1523147111928526,33,10,2,62,26,-2,-6,-17
1523147111928526,-53,6,-2,-56,-35,0,2,12
1523147111930483,-5,0,4,58,44,0,-5,-1
1523147111930483,4,4,6,-14,12,2,-2,-2
1523147111951038,-5,4,0,-43,-20,-2,0,-8
1523147111951038,-3,-8,-13,15,-3,-3,4,15
1523147111952542,-3,9,4,42,12,-6,-9,-17
1523147111952542,-8,-28,-6,-45,-14,4,0,0
1523147111966080,14,9,-2,17,-9,-2,1,6
1523147111966080,-15,-1,8,23,15,2,-4,-10
1523147111967586,6,-7,-13,-56,-20,-2,13,19
1523147111967586,0,6,-1,59,25,3,0,-10
1523147111988642,-8,0,5,-41,-10,-4,-3,-2
1523147111988642,20,1,-5,3,-49,-4,0,-3
1523147111990224,-7,-7,0,-41,7,-2,0,13
1523147111990224,-12,1,-5,53,-15,-3,-5,-16
1523147112011281,-15,-3,-2,-47,-2,3,3,6
1523147112011281,50,5,6,20,24,0,-15,-62
1523147112012783,-77,-52,-3,33,7,-5,9,48
1523147112012783,17,4,-10,-95,-71,2,5,1
1523147112025427,-1,7,-7,108,87,3,-7,-10
1523147112025427,1,1,1,-13,-6,-8,-6,-5
1523147112032336,22,27,13,-25,-9,6,1,-3
1523147112032336,0,-8,-8,-87,-21,3,5,8
1523147112048378,-17,1,2,20,-16,-5,-2,0
1523147112048378,-12,6,-2,49,31,-1,1,22
1523147112050383,5,-1,-7,-37,-7,0,-2,-19
1523147112050383,-10,9,3,42,4,-4,-3,4
1523147112071444,6,8,7,-66,-19,1,2,1
1523147112071444,7,-7,-4,-20,-3,2,6,14
1523147112073134,20,0,-5,-66,-32,2,-4,-12
1523147112073134,-14,-8,5,96,55,0,-5,-12
1523147112085710,-6,-7,-1,-22,-3,-5,-9,-31
1523147112085710,-47,-7,-5,1,2,-8,-3,23
1523147112091992,14,2,-6,-11,-30,0,3,-15
1523147112091992,-3,2,-1,-29,1,-1,-2,8
1523147112108774,9,11,-6,-44,-50,3,7,-1
1523147112108774,-16,-13,10,64,80,-8,-14,-4
1523147112110041,8,30,15,18,13,0,-11,-37
1523147112110041,3,5,-8,-93,-82,-5,1,4
1523147112138744,-5,-16,8,95,60,1,1,7
1523147112138744,15,5,-1,-31,-8,2,4,2
1523147112140124,3,-4,-1,18,8,-5,-4,-3
1523147112140124,18,-26,-6,-64,-10,4,6,13
1523147112145640,-17,5,-3,24,2,-5,-3,9
1523147112145640,5,3,-2,-6,-33,-3,1,2
1523147112152257,5,-10,-1,41,32,3,-2,-13
1523147112152257,-24,10,11,2,-11,-2,5,12
1523147112168795,17,-1,-10,-69,-26,6,9,10
1523147112168795,7,0,-3,-17,-11,-2,0,0
1523147112170202,-5,-4,1,29,13,-4,-9,-10
